-1.00464	-5.04822	-7.66693	-3.74542	
-0.813293	-5.24963	-7.42981	-3.73932	
-0.643921	-5.29785	-7.28088	-3.51685	
-0.48645	-5.22522	-7.13745	-3.1131	
-0.334167	-5.12024	-6.92871	-2.93518	
-0.213013	-5.00275	-6.69708	-3.07678	
-0.126343	-4.86786	-6.50299	-3.46161	
-0.0405884	-4.78271	-6.32996	-3.50311	
0.0527954	-4.55872	-6.13434	-3.10455	
0.184021	-4.44336	-5.91766	-2.74811	
0.313721	-4.43542	-5.71991	-2.36786	
0.374451	-4.56635	-5.64636	-2.21619	
0.346985	-4.60541	-5.69244	-2.02087	
0.258179	-4.16199	-5.78735	-1.91589	
0.15564	-3.51135	-5.88531	-2.08191	
0.0732422	-3.0661	-5.93842	-2.21893	
0.0222778	-3.18024	-5.94482	-2.15271	
0.00427246	-3.64838	-5.89935	-2.01172	
-0.00488281	-4.05701	-5.80292	-2.01477	
-0.0299072	-4.24347	-5.70099	-2.12006	
-0.0735474	-4.22485	-5.6546	-2.1405	
-0.12207	-4.15039	-5.6955	-2.06818	
-0.172119	-4.0686	-5.80353	-1.96533	
-0.204163	-3.98895	-5.91675	-1.94397	
-0.218506	-3.94196	-5.97992	-2.03247	
-0.195007	-3.88733	-5.97595	-2.17743	
-0.151978	-3.91541	-5.92529	-2.34894	
-0.10437	-4.01581	-5.85693	-2.51495	
-0.0521851	-4.16595	-5.79468	-2.68982	
0.0100708	-4.27551	-5.7605	-2.81219	
0.0512695	-4.29474	-5.72998	-2.82166	
0.0372314	-4.26666	-5.71594	-2.75299	
-0.00915527	-4.38477	-5.6781	-2.72858	
-0.0476074	-4.33868	-5.61279	-2.83234	
-0.0457764	-4.1922	-5.54779	-3.00995	
-0.027771	-3.9209	-5.55084	-3.18237	
-0.0259399	-3.8559	-5.68451	-3.66913	
-0.00915527	-3.94257	-5.84076	-3.79181	
0.0524902	-4.039	-5.93658	-3.48846	
0.135803	-4.01855	-5.90637	-2.90955	
0.184326	-3.93616	-5.81604	-2.49634	
0.18158	-3.83514	-5.74768	-2.55219	
0.134583	-3.70941	-5.74768	-2.81525	
0.0564575	-3.52112	-5.8548	-2.94678	
-0.0308228	-3.49762	-5.97687	-3.21472	
-0.101318	-3.61542	-6.0556	-3.66028	
-0.133362	-3.89984	-6.03302	-4.09454	
-0.130005	-4.11163	-5.93842	-4.18762	
-0.128174	-4.02924	-5.82123	-3.8147	
-0.142517	-3.70911	-5.7132	-3.17657	
-0.179749	-3.33252	-5.63599	-2.60681	
-0.230408	-3.10455	-5.61066	-2.27142	
-0.241394	-3.08868	-5.61615	-2.19666	
-0.227356	-3.16406	-5.62653	-2.26471	
-0.205994	-3.20099	-5.63599	-2.31384	
-0.205994	-3.21014	-5.66132	-2.37793	
-0.220337	-3.20313	-5.68787	-2.6416	
-0.218201	-3.17657	-5.69366	-2.75909	
-0.211487	-3.21198	-5.70465	-3.01727	
-0.220642	-3.2016	-5.75043	-3.26233	
-0.263672	-3.28003	-5.82367	-3.4436	
-0.330505	-3.51624	-5.91461	-3.59863	
-0.401001	-3.73138	-5.95276	-3.53912	
-0.445557	-3.78326	-5.92316	-3.32733	
-0.464478	-3.58948	-5.84808	-3.20587	
-0.492554	-3.33313	-5.78888	-3.21716	
-0.578918	-3.18329	-5.77728	-3.45093	
-0.72998	-2.94098	-5.78766	-3.70911	
-0.870667	-2.73743	-5.80231	-3.83911	
-0.933228	-2.68616	-5.82092	-3.91541	
-0.898132	-2.89673	-5.86487	-3.89709	
-0.831299	-3.19977	-5.89325	-3.87573	
-0.817871	-3.35938	-5.87708	-3.76556	
-0.872803	-3.3609	-5.80444	-3.58582	
-0.970764	-3.29315	-5.65887	-3.27972	
-1.03302	-3.23975	-5.47882	-2.94128	
-1.04706	-3.25409	-5.33905	-2.63	
-1.06934	-3.28369	-5.28229	-2.29462	
-1.13556	-3.28735	-5.30823	-1.83167	
-1.22131	-3.20404	-5.3717	-1.32385	
-1.28601	-3.15735	-5.4184	-0.98175	
-1.2912	-3.13629	-5.44037	-0.875854	
-1.22192	-3.15857	-5.41168	-0.824585	
-1.09039	-3.10608	-5.39429	-0.951843	
-0.910645	-2.90955	-5.39551	-0.843811	
-0.741272	-2.6593	-5.43091	-0.673523	
-0.622253	-2.612	-5.4541	-0.484314	
-0.567322	-2.85248	-5.45685	-0.637207	
-0.585327	-3.22235	-5.44434	-1.1261	
-0.635681	-3.49243	-5.44312	-1.70135	
-0.712891	-3.54584	-5.46356	-2.06818	
-0.744324	-3.6731	-5.46234	-2.1579	
-0.711365	-3.78143	-5.41992	-2.13898	
-0.622559	-3.72528	-5.35797	-1.86676	
-0.534973	-3.36823	-5.29694	-1.58508	
-0.500793	-3.03345	-5.25909	-1.46057	
-0.522156	-2.98889	-5.24963	-1.54938	
-0.55603	-3.15308	-5.21149	-1.58112	
-0.595398	-3.24463	-5.15778	-1.6098	
-0.655212	-3.17841	-5.08179	-1.5625	
-0.726013	-3.22418	-5.05676	-1.58905	
-0.786438	-3.35602	-5.11963	-1.7804	
-0.812988	-3.57666	-5.2475	-2.0816	
-0.830688	-3.67188	-5.31403	-2.52197	
-0.838318	-3.60596	-5.30548	-2.99744	
-0.820313	-3.6142	-5.27954	-3.14117	
-0.765381	-3.7326	-5.3299	-3.03253	
-0.711365	-3.88763	-5.43518	-2.69958	
-0.677185	-3.88184	-5.50171	-2.54395	
-0.656433	-3.65692	-5.48218	-2.66846	
-0.661621	-3.35358	-5.40466	-2.85583	
-0.688782	-3.19672	-5.34271	-2.85828	
-0.741272	-3.2074	-5.32349	-2.81647	
-0.747681	-3.35297	-5.29205	-2.58575	
-0.648499	-3.45032	-5.17578	-2.03247	
-0.471191	-3.41888	-4.99603	-1.36688	
-0.321655	-3.26599	-4.84802	-0.828857	
-0.3125	-3.03711	-4.81262	-0.698547	
-0.417175	-2.91626	-4.88983	-0.89325	
-0.556946	-3.03223	-5.0058	-1.17432	
-0.635986	-3.31879	-5.09918	-1.46362	
-0.617981	-3.53363	-5.13123	-1.64948	
-0.50293	-3.37341	-5.1355	-1.37451	
-0.360718	-3.04718	-5.09583	-0.808411	
-0.289612	-2.79175	-5.07874	-0.305481	
-0.352478	-2.82104	-5.10315	-0.19928	
-0.533447	-2.95074	-5.17914	-0.071106	
-0.736694	-2.98309	-5.24506	0.153809	
-0.86853	-2.90039	-5.2597	0.403748	
-0.847778	-2.98981	-5.24048	0.281982	
-0.733032	-3.29865	-5.22797	-0.0595093	
-0.618591	-3.69568	-5.24963	-0.228577	
-0.596619	-3.91846	-5.28992	-0.191956	
-0.652466	-3.94836	-5.35339	-0.145569	
-0.717468	-3.94379	-5.401	-0.325928	
-0.729675	-3.95111	-5.43091	-0.681763	
-0.671082	-4.01215	-5.43854	-1.12885	
-0.579529	-3.97461	-5.46326	-1.37024	
-0.505981	-3.87268	-5.52338	-1.34369	
-0.473022	-3.75153	-5.61615	-1.30371	
-0.456848	-3.73138	-5.69366	-1.35712	
-0.429077	-3.88275	-5.76813	-1.81152	
-0.409241	-4.24713	-5.8606	-2.42126	
-0.402222	-4.43146	-5.9549	-2.72583	
-0.419617	-4.27124	-6.01196	-2.63611	
-0.445251	-3.8855	-6.02386	-2.36969	
-0.493774	-3.59314	-6.02142	-2.27783	
-0.547485	-3.70148	-6.05133	-2.40417	
-0.583191	-4.02405	-6.09558	-2.48718	
-0.585632	-4.25781	-6.13281	-2.48993	
-0.570984	-4.31915	-6.13708	-2.4353	
-0.571594	-4.21173	-6.11023	-2.43591	
-0.593262	-4.06982	-6.08582	-2.42249	
-0.646667	-3.87115	-6.0788	-2.41272	
-0.728149	-3.71735	-6.08673	-2.45117	
-0.837402	-3.56781	-6.08124	-2.47406	
-0.910645	-3.54767	-6.0141	-2.19208	
-0.921936	-3.59558	-5.89874	-1.56982	
-0.874634	-3.71277	-5.78979	-0.956726	
-0.821228	-3.7796	-5.74615	-0.733948	
-0.814514	-3.77594	-5.77148	-0.933838	
-0.847778	-3.65051	-5.79132	-1.16852	
-0.904846	-3.47198	-5.74341	-1.16302	
-0.953064	-3.46344	-5.64056	-0.993042	
-0.980225	-3.54706	-5.57159	-0.784912	
-0.995789	-3.77686	-5.59326	-0.737915	
-0.968018	-3.6908	-5.68573	-0.903015	
-0.887146	-3.46527	-5.75409	-1.27563	
-0.749817	-3.2666	-5.78278	-1.74133	
-0.632629	-3.35388	-5.8078	-2.17316	
-0.609741	-3.66455	-5.87158	-2.45056	
-0.699768	-3.91968	-5.95184	-2.5882	
-0.819702	-3.98163	-6.01318	-2.54578	
-0.926208	-3.84003	-6.02264	-2.3822	
-0.995789	-3.65234	-5.98419	-2.17804	
-1.0495	-3.51501	-5.96344	-2.24762	
-1.07849	-3.48328	-5.9726	-2.37915	
-1.09436	-3.50586	-5.95703	-1.99005	
-1.12701	-3.54706	-5.9201	-1.27228	
-1.203	-3.59558	-5.89478	-0.615845	
-1.31592	-3.62152	-5.95764	-0.609741	
-1.39954	-3.55072	-6.11694	-1.13892	
-1.42822	-3.39264	-6.24969	-1.71051	
-1.39648	-3.36578	-6.31348	-2.17438	
-1.34552	-3.49091	-6.32385	-2.52686	
-1.2973	-3.7146	-6.35864	-2.89917	
-1.25671	-3.92639	-6.43463	-3.20496	
-1.24542	-4.05457	-6.52252	-3.16742	
-1.2439	-4.1156	-6.54236	-2.74048	
-1.21033	-3.93951	-6.50299	-2.08282	
-1.14441	-3.57605	-6.47156	-1.65161	
-1.07666	-3.24524	-6.46942	-1.82037	
-1.07544	-3.21136	-6.52008	-2.44232	
-1.12671	-3.40332	-6.56616	-2.91992	
-1.18073	-3.5968	-6.54541	-2.95563	
-1.1972	-3.66119	-6.47278	-2.70172	
-1.185	-3.69202	-6.39984	-2.55249	
-1.15692	-3.78357	-6.38092	-2.76215	
-1.10596	-3.89648	-6.39618	-3.05603	
-1.06995	-3.95599	-6.40747	-3.13904	
-1.0379	-3.86597	-6.38733	-2.96753	
-1.01318	-3.80981	-6.32599	-2.57385	
-0.991821	-3.74298	-6.26801	-2.18445	
-0.979004	-3.69324	-6.2146	-2.01904	
-0.98175	-3.59009	-6.16791	-2.07794	
-0.929565	-3.59283	-6.1142	-2.258	
-0.79071	-3.78082	-6.06262	-2.48108	
-0.618286	-4.03839	-6.03699	-2.55585	
-0.494995	-4.20715	-6.02997	-2.65869	
-0.457764	-4.20197	-6.03729	-2.7652	
-0.485229	-4.11438	-6.0321	-2.86835	
-0.544434	-4.03687	-6.05103	-2.96875	
-0.572815	-4.0155	-6.10687	-2.93457	
-0.548401	-4.09302	-6.14471	-2.8775	
-0.482483	-4.20349	-6.10992	-2.92816	
-0.448303	-4.2865	-6.02875	-3.05267	
-0.492859	-4.42474	-5.96893	-3.20221	
-0.533752	-4.56451	-5.96527	-3.19092	
-0.502625	-4.52545	-6.00891	-3.23395	
-0.389099	-4.26971	-6.00983	-3.32397	
-0.249329	-3.71826	-5.96863	-3.46436	
-0.148926	-3.39355	-5.9137	-3.43872	
-0.0912476	-3.38226	-5.89966	-3.35907	
-0.0845337	-3.65875	-5.95306	-3.40607	
-0.121765	-3.90533	-6.01929	-3.58032	
-0.151978	-4.11194	-6.05286	-3.7854	
-0.174255	-4.24042	-6.09161	-3.90625	
-0.192566	-4.39331	-6.17523	-4.04755	
-0.26001	-4.28162	-6.28204	-4.20715	
-0.323792	-4.05304	-6.33118	-4.28528	
-0.31189	-3.76648	-6.2796	-4.21295	
-0.219421	-3.64563	-6.138	-4.0918	
-0.106201	-3.60626	-5.96802	-3.97064	
-0.0357056	-3.51257	-5.80292	-3.72406	
-0.03479	-3.34412	-5.64545	-3.32123	
-0.0515747	-3.2309	-5.51758	-3.03009	
-0.0732422	-3.25104	-5.4425	-3.02246	
-0.0759888	-3.31329	-5.4184	-3.3963	
-0.0283813	-3.20465	-5.4248	-3.81104	
0.0717163	-2.84912	-5.40009	-3.83545	
0.166321	-2.4472	-5.32318	-3.55225	
0.185547	-2.32971	-5.23499	-3.13324	
0.128784	-2.60712	-5.18005	-3.02521	
0.0332642	-3.11127	-5.17303	-3.36334	
-0.0115967	-3.45398	-5.17578	-3.6908	
0.015564	-3.57361	-5.15747	-3.84125	
0.0970459	-3.61267	-5.12726	-3.909	
0.205383	-3.74908	-5.10986	-3.99567	
0.273438	-3.83972	-5.14252	-4.21143	
0.281067	-3.78265	-5.21606	-4.20288	
0.233765	-3.57208	-5.28717	-4.07471	
0.170898	-3.33435	-5.29968	-3.82294	
0.102539	-3.16864	-5.27008	-3.83331	
0.0588989	-3.04932	-5.24292	-4.0329	
0.0576782	-2.97913	-5.24323	-4.18701	
0.115051	-2.98401	-5.25604	-4.11041	
0.196533	-3.04443	-5.29022	-3.77136	
0.208435	-3.08472	-5.33905	-3.35327	
0.151367	-3.05115	-5.40222	-3.14972	
0.0982666	-2.94159	-5.44617	-3.22723	
0.123596	-2.85889	-5.4245	-3.16956	
0.221558	-2.96661	-5.34821	-2.90192	
0.283508	-3.10211	-5.27344	-2.48779	
0.270386	-3.1131	-5.26031	-2.09198	
0.205994	-2.94342	-5.28503	-1.96442	
0.15564	-2.79663	-5.289	-1.93695	
0.106201	-2.79724	-5.21393	-2.16431	
0.012207	-2.85889	-5.08392	-2.43256	
-0.139771	-2.73743	-4.94781	-2.64526	
-0.292969	-2.5119	-4.88953	-2.62909	
-0.371094	-2.33124	-4.89868	-2.29828	
-0.340576	-2.33582	-4.96735	-2.03369	
-0.235901	-2.48932	-5.03448	-2.03247	
-0.128479	-2.74414	-5.05798	-2.56561	
-0.0634766	-2.86346	-5.03326	-3.10638	
-0.0521851	-2.82379	-4.98901	-3.21442	
-0.100403	-2.70508	-4.96246	-2.75787	
-0.206909	-2.60406	-4.99237	-2.01813	
-0.34668	-2.67303	-5.06439	-1.75385	
-0.466309	-2.78564	-5.12146	-1.88873	
-0.495911	-2.7536	-5.09216	-2.07611	
-0.406189	-2.61841	-5.02258	-2.11029	
-0.25177	-2.36023	-4.9942	-1.97388	
-0.120544	-2.28394	-5.07446	-1.98181	
-0.0857544	-2.3584	-5.23407	-1.97968	
-0.157776	-2.65259	-5.38361	-1.9635	
-0.298462	-2.94861	-5.52551	-1.96655	
-0.479736	-3.0777	-5.64209	-1.99097	
-0.700378	-2.99194	-5.755	-1.9751	
-0.910645	-2.66571	-5.87006	-1.8927	
-1.00464	-2.33032	-5.9433	-1.81854	
-0.920715	-2.1756	-5.96344	-1.91406	
-0.718384	-2.29492	-5.93536	-2.17712	
-0.570068	-2.57813	-5.85907	-2.32727	
-0.583801	-2.7887	-5.79559	-2.17712	
-0.722351	-2.8299	-5.80536	-1.82739	
-0.90332	-2.72034	-5.92651	-1.49933	
-1.0788	-2.51282	-6.1142	-1.29578	
-1.25671	-2.31262	-6.30829	-1.22284	
-1.40076	-2.21375	-6.45691	-1.19324	
-1.48315	-2.25555	-6.539	-1.23474	
-1.49414	-2.40417	-6.53107	-1.37024	
-1.48743	-2.54303	-6.46637	-1.52496	
-1.50452	-2.53754	-6.38824	-1.62994	
-1.53229	-2.58209	-6.34827	-1.64856	
-1.5387	-2.51129	-6.3266	-1.40686	
-1.54938	-2.51587	-6.34369	-1.07086	
-1.57928	-2.52472	-6.38519	-0.826111	
-1.60614	-2.50916	-6.4386	-0.835266	
-1.59027	-2.52686	-6.45477	-1.07178	
-1.5271	-2.49634	-6.41693	-1.16272	
-1.47217	-2.39777	-6.35376	-1.02448	
-1.4325	-2.32483	-6.31317	-0.753174	
-1.40045	-2.2644	-6.26526	-0.611877	
-1.37695	-2.27417	-6.15326	-0.636902	
-1.37482	-2.33398	-5.97229	-0.787659	
-1.39709	-2.40753	-5.8017	-0.9021	
-1.42731	-2.44659	-5.76263	-0.990906	
-1.46912	-2.43805	-5.90485	-1.07666	
-1.54022	-2.43469	-6.10626	-0.916138	
-1.58813	-2.33185	-6.25458	-0.509644	
-1.55975	-2.17285	-6.30585	-0.067749	
-1.44714	-1.95557	-6.31073	-0.0146484	
-1.32141	-1.91864	-6.34979	-0.520935	
-1.2735	-2.0816	-6.4093	-1.11267	
-1.34094	-2.25159	-6.48499	-1.3269	
-1.4389	-2.35718	-6.49109	-0.989685	
-1.50665	-2.39532	-6.39313	-0.524292	
-1.49078	-2.50305	-6.22559	-0.281067	
-1.43066	-2.59033	-6.10626	-0.405273	
-1.38794	-2.59186	-6.08551	-0.69458	
-1.38336	-2.4826	-6.0968	-0.849609	
-1.41479	-2.32574	-6.10291	-0.846558	
-1.43402	-2.24274	-6.09741	-0.72113	
-1.41388	-2.2699	-6.08124	-0.591736	
-1.38733	-2.39532	-6.02325	-0.562744	
-1.38275	-2.4881	-5.89905	-0.59082	
-1.41907	-2.41364	-5.77118	-0.524292	
-1.48224	-2.18079	-5.70892	-0.371399	
-1.5274	-2.02271	-5.73822	-0.386353	
-1.54724	-1.98639	-5.85571	-0.671997	
-1.53534	-2.08923	-6.00739	-1.16455	
-1.50543	-2.18567	-6.15082	-1.41541	
-1.4798	-2.18872	-6.24176	-1.25366	
-1.46606	-2.10327	-6.24634	-0.822144	
-1.45782	-2.02087	-6.15631	-0.426025	
-1.45233	-1.94305	-5.9848	-0.418701	
-1.44318	-1.9696	-5.76385	-0.695801	
-1.43524	-2.03033	-5.58899	-1.10229	
-1.41907	-2.07397	-5.51575	-1.44897	
-1.37634	-2.04163	-5.55817	-1.61285	
-1.29181	-2.01477	-5.66925	-1.69983	
-1.21399	-2.16431	-5.77087	-1.88721	
-1.18896	-2.22107	-5.77454	-2.06818	
-1.26404	-2.05688	-5.66162	-2.20123	
-1.41693	-1.72119	-5.49805	-2.29187	
-1.5976	-1.51978	-5.41077	-2.35229	
-1.74408	-1.62354	-5.44434	-2.41547	
-1.82434	-1.82251	-5.54199	-2.32086	
-1.828	-1.80481	-5.66864	-2.39227	
-1.75323	-1.65527	-5.76111	-2.5116	
-1.59363	-1.50452	-5.80902	-2.53357	
-1.40015	-1.47461	-5.84167	-2.47314	
-1.24329	-1.49384	-5.85236	-2.453	
-1.13678	-1.48621	-5.82428	-2.35321	
-1.0022	-1.46149	-5.73151	-2.28516	
-0.80658	-1.521	-5.59509	-2.15637	
-0.627441	-1.7688	-5.49255	-2.11975	
-0.587769	-1.98212	-5.48981	-2.15515	
-0.72876	-2.08282	-5.54016	-2.16034	
-1.00861	-1.98608	-5.57465	-2.22504	
-1.31256	-1.73248	-5.53009	-2.35657	
-1.5329	-1.55548	-5.3894	-2.4823	
-1.59576	-1.55518	-5.20081	-2.40662	
-1.52679	-1.69373	-5.02502	-2.23938	
-1.41724	-1.87927	-4.91974	-2.15454	
-1.34979	-1.99463	-4.91089	-2.15088	
-1.34552	-2.0401	-5.01129	-2.16309	
-1.33881	-2.05475	-5.16602	-2.19818	
-1.29669	-2.02271	-5.3006	-2.27051	
-1.21124	-1.95587	-5.33569	-2.24121	
-1.1438	-1.80115	-5.26825	-1.99249	
-1.10168	-1.62964	-5.14984	-1.67267	
-1.03668	-1.52802	-5.0528	-1.38916	
-0.919495	-1.57074	-4.97498	-1.52832	
-0.780334	-1.80389	-4.91974	-1.71783	
-0.660706	-1.94672	-4.87244	-1.7395	
-0.604858	-1.92596	-4.83368	-1.56342	
-0.624084	-1.83746	-4.78577	-1.4267	
-0.723572	-1.83044	-4.70947	-1.64978	
-0.873413	-1.89545	-4.59778	-2.0636	
-1.01868	-1.92352	-4.46747	-2.2287	
-1.1203	-1.84906	-4.35852	-2.1405	
-1.18042	-1.7865	-4.28955	-1.92535	
-1.22894	-1.77704	-4.28833	-1.78497	
-1.24481	-1.77277	-4.35516	-1.77948	
-1.20972	-1.77887	-4.44916	-1.8808	
-1.12518	-1.79596	-4.52728	-2.19208	
-1.04034	-1.8576	-4.58038	-2.68738	
-0.983582	-1.89209	-4.60632	-3.02795	
-0.924072	-1.9162	-4.63837	-2.93854	
-0.845947	-1.9278	-4.65393	-2.46552	
-0.771179	-1.95007	-4.67133	-2.15485	
-0.740662	-1.96472	-4.70917	-2.18048	
-0.785828	-1.88934	-4.76868	-2.47467	
-0.849304	-1.84143	-4.80713	-2.81616	
-0.898438	-1.84174	-4.84039	-3.1897	
-0.952454	-1.96136	-4.88129	-3.33832	
-1.05743	-2.0813	-4.93805	-3.10486	
-1.21033	-2.09351	-4.95514	-2.67944	
-1.35345	-1.94275	-4.89624	-2.34772	
-1.41327	-1.586	-4.79767	-2.42493	
-1.37848	-1.35986	-4.73724	-2.63184	
-1.32019	-1.3446	-4.75281	-2.57568	
-1.25336	-1.63361	-4.82605	-2.24945	
-1.18958	-1.89941	-4.94751	-1.93298	
-1.1322	-1.96381	-5.12573	-1.90186	
-1.10901	-1.83533	-5.32806	-2.04193	
-1.0965	-1.73035	-5.50903	-2.1698	
-1.04858	-1.81702	-5.67413	-2.24792	
-0.940552	-2.05811	-5.80322	-2.41638	
-0.765991	-2.29431	-5.87219	-2.65839	
-0.556335	-2.53845	-5.8078	-3.00049	
-0.357056	-2.70325	-5.61005	-3.44849	
-0.227661	-2.75848	-5.36774	-3.62549	
-0.215454	-2.59827	-5.20752	-3.45001	
-0.334778	-2.41669	-5.18799	-2.99866	
-0.561218	-2.27509	-5.26886	-2.62848	
-0.848083	-2.26471	-5.39917	-2.60986	
-1.12274	-2.26013	-5.50385	-2.75085	
-1.27106	-2.21832	-5.53802	-2.79633	
-1.2265	-2.2525	-5.47638	-2.70935	
-1.08459	-2.2522	-5.33417	-2.64343	
-0.978394	-2.17987	-5.20538	-2.57538	
-0.997314	-2.03857	-5.13092	-2.64435	
-1.09619	-1.9043	-5.1593	-2.80212	
-1.19263	-1.90155	-5.28046	-2.92603	
-1.20728	-2.02545	-5.44708	-2.89764	
-1.14929	-2.20306	-5.56946	-2.72736	
-1.03943	-2.37183	-5.578	-2.5943	
-0.97229	-2.46582	-5.5011	-2.724	
-0.998535	-2.55768	-5.45868	-3.18512	
-1.09222	-2.58942	-5.49713	-3.42743	
-1.17828	-2.51862	-5.60242	-3.42194	
-1.18256	-2.30591	-5.71411	-3.09265	
-1.11786	-2.08527	-5.79376	-2.75665	
-1.05927	-1.94702	-5.86304	-2.65747	
-1.08429	-1.83167	-5.88318	-2.63092	
-1.19202	-1.67114	-5.85022	-2.57202	
-1.31897	-1.52771	-5.75409	-2.55768	
-1.39801	-1.49872	-5.62225	-2.51465	
-1.39099	-1.58936	-5.49042	-2.52228	
-1.31744	-1.69769	-5.40894	-2.53662	
-1.20483	-1.73767	-5.37018	-2.51465	
-1.07605	-1.77307	-5.34973	-2.44568	
-0.940857	-1.86157	-5.30792	-2.32758	
-0.814209	-1.98517	-5.21576	-2.23694	
-0.744019	-2.00623	-5.07599	-2.19208	
-0.741577	-1.92749	-4.96216	-2.18445	
-0.774536	-1.80542	-4.95239	-2.2229	
-0.814514	-1.7395	-5.06866	-2.25952	
-0.854492	-1.76758	-5.29816	-2.44049	
-0.921326	-1.79382	-5.50995	-2.43073	
-1.03058	-1.81366	-5.65277	-2.12646	
-1.14685	-1.78436	-5.71259	-1.58539	
-1.25122	-1.72424	-5.73608	-1.20972	
-1.33545	-1.70593	-5.77484	-1.29272	
-1.40137	-1.67847	-5.79651	-1.73096	
-1.41541	-1.62781	-5.77057	-2.05658	
-1.34277	-1.44104	-5.67932	-1.86462	
-1.21948	-1.16577	-5.59174	-1.35712	
-1.14807	-0.987244	-5.55878	-1.09772	
-1.13464	-1.08185	-5.55206	-1.20453	
-1.12946	-1.38947	-5.49316	-1.35651	
-1.08307	-1.65405	-5.3772	-1.1792	
-1.02478	-1.70288	-5.28473	-0.826416	
-1.02509	-1.60004	-5.33386	-0.814514	
-1.07391	-1.54785	-5.52155	-1.08185	
-1.12213	-1.63452	-5.7309	-1.46576	
-1.17645	-1.79199	-5.87524	-1.82648	
-1.23718	-1.92688	-5.88501	-1.91162	
-1.29791	-1.94122	-5.75775	-1.81763	
-1.32599	-1.85699	-5.58258	-1.65955	
-1.30798	-1.71021	-5.45288	-1.69098	
-1.2677	-1.57349	-5.39215	-1.92352	
-1.23322	-1.45782	-5.3595	-2.13379	
-1.23627	-1.39923	-5.28564	-2.29126	
-1.28998	-1.38336	-5.18311	-2.44354	
-1.38885	-1.38123	-5.11871	-2.32269	
-1.46332	-1.41296	-5.13733	-2.05444	
-1.4209	-1.47614	-5.18524	-1.67633	
-1.19354	-1.53748	-5.12482	-1.52985	
-0.851746	-1.63391	-4.90997	-1.67572	
-0.612793	-1.72546	-4.67102	-1.93146	
-0.607605	-1.81152	-4.59869	-2.23236	
-0.798645	-1.82617	-4.76501	-2.47345	
-0.975037	-1.83777	-5.04211	-2.39838	
-1.00525	-1.87073	-5.26062	-1.9873	
-0.909729	-1.9635	-5.37872	-1.44684	
-0.81665	-2.05688	-5.47485	-1.31073	
-0.82489	-1.97235	-5.55389	-1.39008	
-0.932922	-1.70959	-5.59723	-1.40259	
-1.0553	-1.39343	-5.57281	-1.27991	
-1.12671	-1.17889	-5.52399	-1.20087	
-1.13708	-1.19141	-5.52216	-1.33667	
-1.11664	-1.28235	-5.54016	-1.49017	
-1.0672	-1.36108	-5.49408	-1.56952	
-0.957336	-1.3562	-5.34393	-1.53778	
-0.800476	-1.30249	-5.14252	-1.45264	
-0.635681	-1.31134	-4.98993	-1.52374	
-0.554504	-1.40381	-4.94781	-1.7926	
-0.59082	-1.49353	-4.97223	-2.0401	
-0.701599	-1.46851	-5.00946	-2.13898	
-0.822754	-1.32233	-5.05615	-1.97632	
-0.936584	-1.34583	-5.11017	-1.7334	
-1.07056	-1.427	-5.19165	-1.42914	
-1.23108	-1.40717	-5.30365	-1.13129	
-1.36108	-1.12762	-5.38116	-0.835876	
-1.41876	-0.735474	-5.41351	-0.714111	
-1.43066	-0.516357	-5.39917	-0.857544	
-1.42181	-0.541382	-5.37567	-1.15143	
-1.38184	-0.77179	-5.38635	-1.41846	
-1.31439	-1.10626	-5.41687	-1.57318	
-1.22864	-1.3797	-5.42938	-1.67511	
-1.1261	-1.49414	-5.39917	-1.80176	
-0.957031	-1.47644	-5.36346	-1.89331	
-0.725708	-1.53961	-5.37262	-1.88629	
-0.51178	-1.66718	-5.4364	-1.76971	
-0.451965	-1.69678	-5.54474	-1.86829	
-0.57312	-1.53656	-5.63202	-1.9931	
-0.785217	-1.31439	-5.68085	-1.86371	
-0.969543	-1.13953	-5.66803	-1.20422	
-1.04462	-1.18164	-5.61188	-0.435791	
-1.03119	-1.24176	-5.5722	-0.0506592	
-0.975037	-1.27197	-5.55634	-0.163269	
-0.940857	-1.24237	-5.61981	-0.479126	
-0.951843	-1.20239	-5.72571	-0.731506	
-0.974121	-1.23199	-5.80017	-0.817871	
-0.965881	-1.30829	-5.74219	-0.784302	
-0.921631	-1.39465	-5.55298	-0.745239	
-0.87738	-1.51123	-5.33997	-0.739441	
-0.837097	-1.71539	-5.2179	-0.864868	
-0.740967	-1.95465	-5.23712	-1.15173	
-0.531921	-1.93451	-5.31525	-1.15997	
-0.264282	-1.76453	-5.36835	-0.975037	
-0.0741577	-1.54968	-5.35004	-0.569763	
-0.0762939	-1.55243	-5.28015	-0.310059	
-0.238342	-1.65863	-5.18158	-0.19989	
-0.411377	-1.60156	-5.06042	-0.195313	
-0.42572	-1.4505	-4.90997	-0.238037	
-0.273743	-1.28235	-4.71954	-0.39978	
-0.0622559	-1.22925	-4.53522	-0.632324	
0.141907	-1.33331	-4.37256	-0.873413	
0.316772	-1.44775	-4.25629	-1.05927	
0.500793	-1.55609	-4.11255	-1.07483	
0.677795	-1.63422	-3.92181	-1.12762	
0.810547	-1.50146	-3.72223	-1.15265	
0.895386	-1.2561	-3.62671	-1.17889	
0.987549	-0.973511	-3.67157	-1.09314	
1.12579	-0.887756	-3.79944	-0.91095	
1.29456	-1.00159	-3.84186	-0.678101	
1.38885	-1.05194	-3.74908	-0.486755	
1.35681	-0.958862	-3.61328	-0.424194	
1.20148	-0.751343	-3.58948	-0.53894	
1.05042	-0.748596	-3.69446	-0.82489	
0.976868	-0.895996	-3.84216	-1.10321	
0.935669	-1.0791	-3.95264	-1.26801	
0.882874	-1.05927	-4.02161	-1.11053	
0.783386	-0.846252	-4.09088	-0.798035	
0.674133	-0.62439	-4.16565	-0.465088	
0.595398	-0.567017	-4.26788	-0.340576	
0.540466	-0.652466	-4.37805	-0.583191	
0.492554	-0.871582	-4.48273	-0.973206	
0.421143	-1.05865	-4.49829	-1.3205	
0.346375	-1.19598	-4.41925	-1.35284	
0.315247	-1.32446	-4.30634	-1.19781	
0.35553	-1.26221	-4.24652	-0.977173	
0.428467	-1.17798	-4.27429	-0.810852	
0.467529	-1.02875	-4.3338	-0.861511	
0.436401	-1.04767	-4.36737	-1.17645	
0.366516	-1.34979	-4.39911	-1.50787	
0.296631	-1.62384	-4.44122	-1.6275	
0.239868	-1.65894	-4.53613	-1.51337	
0.180054	-1.43738	-4.60999	-1.33728	
0.0909424	-1.18042	-4.58588	-1.37909	
-0.0228882	-1.14227	-4.47815	-1.55884	
-0.109863	-1.28723	-4.3573	-1.7041	
-0.126953	-1.44257	-4.32617	-1.56952	
-0.0506592	-1.5274	-4.41467	-1.28235	
0.0836182	-1.50543	-4.52179	-1.05042	
0.19928	-1.50726	-4.56818	-1.18164	
0.228577	-1.50391	-4.49768	-1.41144	
0.187683	-1.46454	-4.37317	-1.54236	
0.157471	-1.48987	-4.28558	-1.63391	
0.21637	-1.62018	-4.263	-1.60156	
0.35553	-1.85974	-4.26056	-1.60919	
0.465393	-2.03888	-4.24072	-1.54175	
0.458374	-1.99463	-4.19678	-1.41052	
0.341797	-1.81885	-4.16595	-1.41907	
0.19165	-1.63849	-4.18793	-1.5625	
0.0857544	-1.47552	-4.24133	-1.71387	
0.0164795	-1.3916	-4.2926	-1.74591	
-0.0598145	-1.31775	-4.3573	-1.64246	
-0.143738	-1.27869	-4.44153	-1.53381	
-0.195313	-1.37085	-4.55383	-1.54785	
-0.196533	-1.52161	-4.64478	-1.71326	
-0.15625	-1.69586	-4.65729	-1.99097	
-0.107117	-1.7514	-4.5755	-2.13318	
-0.0512695	-1.61591	-4.42139	-1.99463	
-0.0186157	-1.39801	-4.2749	-1.69952	
-0.00274658	-1.27686	-4.25201	-1.57471	
0.0442505	-1.30951	-4.39789	-1.62903	
0.136108	-1.45691	-4.66248	-1.57745	
0.211792	-1.51123	-4.89105	-1.30219	
0.214233	-1.44836	-4.97589	-0.922241	
0.142212	-1.40808	-4.92462	-0.794983	
0.0735474	-1.58142	-4.83337	-1.03119	
0.0384521	-1.68732	-4.74945	-1.29639	
0.0170898	-1.61102	-4.73969	-1.39252	
-0.0201416	-1.29364	-4.83276	-1.29028	
-0.0732422	-1.09131	-5.00427	-1.10626	
-0.138245	-1.19171	-5.19257	-1.16669	
-0.223694	-1.47949	-5.336	-1.43677	
-0.309448	-1.62384	-5.37292	-1.57715	
-0.375671	-1.60461	-5.31036	-1.50543	
-0.39978	-1.54602	-5.19379	-1.29547	
-0.384216	-1.59637	-5.0354	-1.18042	
-0.336914	-1.76453	-4.85138	-1.07483	
-0.256042	-1.98456	-4.64264	-0.879517	
-0.0967407	-2.06757	-4.48669	-0.761108	
0.0949097	-2.06543	-4.45648	-0.787354	
0.24292	-2.02637	-4.54163	-0.968018	
0.249939	-2.06421	-4.68719	-1.14227	
0.128479	-2.17377	-4.82086	-1.26282	
-0.0338745	-2.18231	-4.91119	-1.36322	
-0.13092	-2.13318	-4.91913	-1.38275	
-0.164185	-2.04651	-4.86664	-1.35681	
-0.167236	-2.03339	-4.79645	-1.1969	
-0.174866	-1.98029	-4.74579	-0.938416	
-0.172424	-1.84784	-4.69574	-0.846252	
-0.148926	-1.70135	-4.64142	-0.779724	
-0.108032	-1.49384	-4.6225	-0.818176	
-0.06073	-1.35529	-4.67407	-0.782471	
-0.015564	-1.22467	-4.76074	-0.693359	
0.0201416	-1.22467	-4.81567	-0.594788	
0.0570679	-1.39954	-4.80347	-0.59021	
0.115051	-1.65253	-4.77783	-0.680542	
0.2005	-1.77368	-4.75159	-0.75531	
0.261536	-1.7627	-4.73999	-0.784302	
0.219727	-1.7572	-4.74548	-0.805664	
0.0436401	-1.9223	-4.75647	-0.90271	
-0.174866	-1.99738	-4.74335	-0.958557	
-0.283203	-1.86584	-4.65912	-0.740356	
-0.231323	-1.57776	-4.53796	-0.322876	
-0.0997925	-1.39862	-4.41101	0.0753784	
-0.00366211	-1.4563	-4.31244	0.0393677	
-0.000610352	-1.50238	-4.23157	-0.28656	
-0.0390625	-1.5332	-4.1449	-0.595703	
-0.0738525	-1.57928	-4.11377	-0.695801	
-0.071106	-1.73981	-4.18793	-0.617981	
-0.0726318	-1.85822	-4.35791	-0.635376	
-0.0778198	-1.9339	-4.50958	-0.742188	
-0.0842285	-1.94763	-4.57581	-0.871277	
-0.0439453	-2.06604	-4.56421	-0.896912	
0.0463867	-2.24548	-4.51965	-0.797729	
0.158081	-2.50183	-4.47418	-0.711975	
0.225525	-2.70508	-4.41406	-0.860901	
0.196838	-2.70782	-4.33563	-1.03516	
0.0830078	-2.43744	-4.2691	-1.13922	
-0.032959	-2.12463	-4.23065	-1.1142	
-0.0973511	-2.06024	-4.27612	-0.935974	
-0.126648	-2.26563	-4.4104	-0.800476	
-0.136414	-2.41394	-4.49982	-0.527344	
-0.149231	-2.25342	-4.47906	-0.230408	
-0.171814	-1.90094	-4.32953	-0.020752	
-0.224304	-1.66168	-4.19434	-0.100403	
-0.308228	-1.55701	-4.18213	-0.321655	
-0.328064	-1.55487	-4.25385	-0.597534	
-0.242615	-1.61774	-4.35944	-0.733337	
-0.101624	-1.80725	-4.42505	-0.78064	
-0.0137329	-2.06848	-4.45618	-0.806885	
0.0271606	-2.19696	-4.45068	-0.697327	
0.0473022	-2.14661	-4.4339	-0.519714	
0.0796509	-2.02637	-4.44611	-0.367737	
0.0982666	-1.96991	-4.47906	-0.339355	
0.078125	-2.04346	-4.52271	-0.623169	
0.0384521	-2.18384	-4.54193	-0.883179	
-0.00701904	-2.2113	-4.52026	-0.850525	
-0.0717163	-2.0752	-4.44092	-0.59967	
-0.116272	-1.88934	-4.29718	-0.408325	
-0.123291	-1.88721	-4.16534	-0.577698	
-0.0933838	-1.94489	-4.08478	-0.964966	
-0.0558472	-1.9104	-4.10217	-1.16913	
-0.0549316	-1.78223	-4.17053	-1.26526	
-0.120544	-1.68427	-4.23889	-1.25275	
-0.174866	-1.76178	-4.31305	-0.974426	
-0.196228	-1.8454	-4.38293	-0.547791	
-0.141602	-1.86005	-4.39087	-0.166931	
-0.0537109	-1.96594	-4.32251	-0.198669	
0.0146484	-2.16125	-4.23737	-0.611877	
0.0512695	-2.38281	-4.22333	-0.95459	
0.0527954	-2.63184	-4.30145	-1.11908	
0.0411987	-2.54761	-4.45679	-0.978088	
0.00823975	-2.25861	-4.59686	-0.70282	
-0.0439453	-1.81763	-4.64966	-0.403748	
-0.0964355	-1.5274	-4.58435	-0.371399	
-0.112915	-1.66901	-4.41284	-0.511169	
-0.0772095	-1.93726	-4.21112	-0.640564	
0.015564	-2.15485	-4.05579	-0.549622	
0.133362	-2.23602	-3.99811	-0.324402	
0.255127	-2.22717	-4.06006	-0.121765	
0.336914	-2.18506	-4.17847	-0.0942993	
0.390625	-2.21954	-4.26666	-0.151978	
0.446777	-2.27844	-4.2984	-0.321045	
0.566406	-2.34161	-4.28009	-0.436707	
0.72876	-2.30133	-4.25751	-0.415039	
0.87616	-2.19452	-4.23645	-0.39032	
0.987549	-2.11639	-4.21356	-0.441589	
1.07178	-2.099	-4.16656	-0.635681	
1.14014	-2.19452	-4.08997	-0.921936	
1.15021	-2.36115	-4.03595	-1.33301	
1.07635	-2.58209	-4.02069	-1.51123	
0.926208	-2.82837	-4.04816	-1.43616	
0.819092	-2.77405	-4.06342	-1.12671	
0.79071	-2.48016	-4.01276	-0.921631	
0.8255	-2.17133	-3.88428	-1.02783	
0.801697	-2.0578	-3.75488	-1.46667	
0.671082	-2.28607	-3.71429	-1.99127	
0.48645	-2.57935	-3.8089	-2.35321	
0.342102	-2.77435	-3.99994	-2.41913	
0.306091	-2.73834	-4.18518	-2.12402	
0.379333	-2.50275	-4.27948	-1.82434	
0.560608	-2.28851	-4.2749	-1.76788	
0.785828	-2.20917	-4.21204	-1.94519	
0.956421	-2.28668	-4.15588	-2.12494	
1.02753	-2.37061	-4.13391	-2.09778	
1.02905	-2.34161	-4.13116	-1.95953	
1.00189	-2.27234	-4.12201	-1.8277	
0.960083	-2.22351	-4.0921	-1.81305	
0.852051	-2.16919	-4.06036	-2.00195	
0.710449	-2.17041	-3.99414	-2.33124	
0.618286	-2.18414	-3.89374	-2.53754	
0.635681	-2.29614	-3.79395	-2.63123	
0.740051	-2.4292	-3.69598	-2.26349	
0.839233	-2.4704	-3.60535	-1.6925	
0.851135	-2.39014	-3.54858	-1.28418	
0.783386	-2.29797	-3.56781	-1.27411	
0.707092	-2.1405	-3.66302	-1.54144	
0.692444	-1.93298	-3.77869	-1.58875	
0.762329	-1.72607	-3.85345	-1.38306	
0.848389	-1.63269	-3.90991	-1.14014	
0.890503	-1.7041	-3.94226	-1.15021	
0.909119	-1.78619	-3.92853	-1.37573	
0.957336	-1.90277	-3.8559	-1.56921	
1.04492	-2.05994	-3.76007	-1.66351	
1.09863	-2.18109	-3.70972	-1.66931	
1.06232	-2.24579	-3.72742	-1.70715	
0.978699	-2.18719	-3.78357	-1.67358	
0.929871	-2.10358	-3.85284	-1.63208	
0.94574	-2.05017	-3.89435	-1.56982	
0.977783	-1.97632	-3.92578	-1.60828	
0.957642	-2.02881	-3.97217	-1.59149	
0.858765	-1.97937	-4.03351	-1.40839	
0.721741	-1.84479	-4.07379	-1.02631	
0.579834	-1.64917	-4.03931	-0.536804	
0.47699	-1.5799	-3.94073	-0.328979	
0.43335	-1.70563	-3.82599	-0.388184	
0.489807	-1.8869	-3.74329	-0.584717	
0.666199	-1.95862	-3.65875	-0.658875	
0.906677	-1.89911	-3.5675	-0.610657	
1.12549	-1.83319	-3.49396	-0.502014	
1.27594	-1.75049	-3.46405	-0.290222	
1.3623	-1.72729	-3.47076	-0.153809	
1.37909	-1.68091	-3.47565	-0.13855	
1.31042	-1.66046	-3.44299	-0.256348	
1.16791	-1.61285	-3.39844	-0.282593	
0.998535	-1.70074	-3.34808	-0.231323	
0.86853	-1.80939	-3.29407	-0.206604	
0.80658	-1.94672	-3.28583	-0.446472	
0.811157	-2.01477	-3.32642	-0.779724	
0.827942	-2.01813	-3.37311	-1.01135	
0.824585	-1.96045	-3.36273	-1.02203	
0.800171	-1.88354	-3.2959	-0.860596	
0.773315	-1.91772	-3.237	-0.767822	
0.760193	-2.08466	-3.2135	-0.761108	
0.752258	-2.25922	-3.21442	-0.903015	
0.72937	-2.26746	-3.25134	-1.00677	
0.715027	-1.9986	-3.31696	-0.956726	
0.747986	-1.7215	-3.40912	-0.697327	
0.82489	-1.62262	-3.51624	-0.475464	
0.932922	-1.78558	-3.58765	-0.366821	
1.00861	-1.99707	-3.5965	-0.463257	
1.00494	-2.04803	-3.51715	-0.607605	
0.942383	-1.87592	-3.40332	-0.647888	
0.891418	-1.57867	-3.33069	-0.648193	
0.924377	-1.36597	-3.32336	-0.633545	
1.02325	-1.34949	-3.37555	-0.631714	
1.09894	-1.41968	-3.4021	-0.46051	
1.08734	-1.52191	-3.3847	-0.493164	
0.995178	-1.50726	-3.31451	-0.473328	
0.859375	-1.41205	-3.23486	-0.353394	
0.757751	-1.28723	-3.18573	0.0479126	
0.763245	-1.21277	-3.18481	0.466614	
0.858765	-1.17828	-3.20892	0.51178	
0.953064	-1.27808	-3.26019	0.23468	
0.935974	-1.35071	-3.32642	-0.0717163	
0.805664	-1.51001	-3.36273	-0.281982	
0.667114	-1.65985	-3.34869	-0.375366	
0.601196	-1.81122	-3.28278	-0.435791	
0.632019	-1.93054	-3.24768	-0.434265	
0.689697	-2.05017	-3.27301	-0.419312	
0.680237	-2.23511	-3.35999	-0.455933	
0.579224	-2.38495	-3.4787	-0.650024	
0.440369	-2.3938	-3.59985	-0.746155	
0.340881	-2.29736	-3.71094	-0.574036	
0.305176	-2.25098	-3.8089	-0.0518799	
0.298767	-2.44659	-3.86993	0.332031	
0.292969	-2.67059	-3.87695	0.391846	
0.292053	-2.66022	-3.81256	0.113831	
0.307007	-2.37701	-3.71399	-0.0372314	
0.314941	-2.03888	-3.65051	0.108643	
0.30365	-1.93359	-3.66089	0.462036	
0.237122	-2.01813	-3.69629	0.671692	
0.133057	-2.15363	-3.73932	0.617065	
0.0402832	-2.2702	-3.76312	0.456238	
0.0332642	-2.38739	-3.79517	0.306396	
0.105286	-2.60925	-3.81531	0.210876	
0.215759	-2.77191	-3.76068	0.210266	
0.309753	-2.87476	-3.62	0.201721	
0.362244	-2.85522	-3.508	0.13916	
0.375366	-2.82227	-3.48877	0.0708008	
0.361328	-2.70355	-3.52905	0.194092	
0.305786	-2.40906	-3.55927	0.386963	
0.228577	-2.04315	-3.5733	0.515137	
0.171204	-1.7514	-3.59924	0.691223	
0.158691	-1.81152	-3.6499	0.812378	
0.200195	-2.08008	-3.65875	0.953369	
0.256958	-2.2644	-3.6084	1.08826	
0.299988	-2.30377	-3.54431	1.10229	
0.333557	-2.28363	-3.51501	1.1795	
0.354309	-2.35596	-3.53241	1.20941	
0.348816	-2.53601	-3.61176	1.23138	
0.338745	-2.62054	-3.71735	1.15387	
0.343628	-2.61658	-3.77808	0.965881	
0.383301	-2.53448	-3.75244	0.809631	
0.447998	-2.46796	-3.64868	0.757751	
0.493164	-2.37854	-3.55164	0.792847	
0.522461	-2.20337	-3.53485	0.939026	
0.527344	-2.11578	-3.57361	0.920105	
0.492859	-2.15912	-3.64105	0.906677	
0.429382	-2.15179	-3.67889	0.936584	
0.345459	-2.07245	-3.68317	0.957336	
0.297546	-1.96503	-3.68134	0.891724	
0.303345	-2.16949	-3.68286	0.741882	
0.336304	-2.40723	-3.70941	0.596008	
0.370483	-2.50916	-3.73718	0.761414	
0.373535	-2.39807	-3.76251	1.02661	
0.325623	-2.29065	-3.76587	1.26129	
0.247498	-2.32727	-3.72894	1.26495	
0.161133	-2.46399	-3.68439	1.0141	
0.111389	-2.61383	-3.68286	0.57251	
0.143433	-2.71729	-3.74115	0.32135	
0.269165	-2.74872	-3.82904	0.405884	
0.447998	-2.74506	-3.90411	0.618286	
0.589905	-2.74353	-3.95569	0.852966	
0.61615	-2.79022	-3.99414	0.887146	
0.534668	-2.88391	-4.01703	0.834656	
0.4422	-2.98279	-3.96698	0.768433	
0.426941	-3.22083	-3.84399	0.516052	
0.502014	-3.38287	-3.70667	0.249939	
0.600586	-3.26538	-3.63098	0.320435	
0.661621	-2.77679	-3.6438	0.601501	
0.674744	-2.32544	-3.67981	0.87677	
0.68512	-2.29065	-3.66852	0.866699	
0.710449	-2.7002	-3.5907	0.730591	
0.735779	-3.12866	-3.51074	0.571899	
0.712585	-3.31818	-3.48572	0.37323	
0.656128	-3.36182	-3.54218	0.231018	
0.601196	-3.3316	-3.63586	0.200195	
0.565186	-3.29285	-3.72559	0.291443	
0.534668	-3.25073	-3.77563	0.41748	
0.485229	-3.21716	-3.78265	0.465393	
0.439148	-3.23242	-3.77838	0.267639	
0.41687	-3.32245	-3.80066	0.187073	
0.418701	-3.47351	-3.83972	0.142212	
0.45166	-3.526	-3.89008	0.248108	
0.512085	-3.45612	-3.93127	0.183411	
0.595093	-3.18726	-3.92548	-0.120544	
0.675049	-2.88055	-3.85834	-0.151367	
0.732117	-2.68555	-3.74847	0.10376	
0.743103	-2.63306	-3.638	0.55603	
0.750122	-2.71515	-3.57788	0.756531	
0.767822	-2.84424	-3.55927	0.601196	
0.809937	-2.89032	-3.5437	0.38147	
0.836182	-2.88696	-3.53149	0.256042	
0.823059	-2.76276	-3.54187	0.177917	
0.806885	-2.68402	-3.59955	0.0390625	
0.829163	-2.66876	-3.68134	-0.117188	
0.874634	-2.76093	-3.73322	-0.302124	
0.897522	-2.96875	-3.75977	-0.489197	
0.862427	-3.2486	-3.76648	-0.773315	
0.819397	-3.37952	-3.74237	-0.944214	
0.827332	-3.36975	-3.67371	-0.856323	
0.871277	-3.19	-3.57605	-0.775757	
0.910645	-2.9126	-3.44788	-0.494385	
0.889587	-2.67517	-3.3197	-0.26062	
0.808716	-2.52838	-3.24524	-0.153198	
0.701904	-2.65259	-3.26294	-0.297241	
0.647888	-2.7713	-3.33282	-0.414734	
0.702209	-2.8183	-3.34747	-0.428467	
0.833435	-2.74689	-3.21228	-0.281677	
0.908203	-2.77863	-2.9895	-0.313721	
0.836487	-2.94037	-2.81952	-0.519104	
0.643311	-3.10059	-2.75665	-0.617676	
0.45166	-3.15399	-2.84882	-0.47821	
0.344238	-3.21289	-3.0542	-0.247803	
0.345459	-3.33282	-3.32184	-0.159607	
0.415039	-3.53485	-3.55682	-0.255127	
0.515442	-3.66516	-3.65509	-0.439453	
0.605774	-3.74878	-3.61084	-0.573425	
0.643921	-3.73871	-3.47046	-0.591125	
0.62439	-3.60657	-3.32397	-0.5896	
0.55542	-3.49579	-3.24799	-0.720825	
0.458069	-3.38837	-3.22418	-0.939636	
0.383606	-3.33405	-3.23059	-1.11481	
0.370483	-3.28094	-3.21533	-0.964661	
0.423584	-3.22968	-3.15338	-0.739136	
0.491333	-3.22693	-3.03741	-0.646973	
0.526123	-3.32153	-2.86621	-0.719604	
0.546265	-3.37982	-2.69836	-0.801697	
0.548096	-3.38745	-2.62115	-0.707092	
0.522461	-3.32092	-2.64435	-0.489502	
0.457458	-3.24127	-2.77435	-0.377502	
0.364685	-3.17352	-3.00476	-0.28717	
0.280457	-3.0896	-3.25989	-0.172424	
0.227966	-2.97913	-3.46466	-0.100708	
0.242615	-2.94403	-3.52448	-0.213013	
0.33905	-2.95959	-3.45306	-0.385437	
0.471802	-3.06396	-3.35754	-0.554504	
0.552063	-3.18329	-3.34167	-0.620117	
0.548401	-3.27118	-3.39935	-0.554504	
0.498962	-3.35083	-3.44635	-0.484924	
0.451355	-3.31482	-3.40637	-0.500488	
0.411987	-3.16193	-3.2724	-0.505676	
0.361023	-2.9245	-3.1192	-0.559998	
0.301819	-2.79205	-2.98218	-0.427246	
0.229187	-2.78564	-2.89459	-0.274353	
0.140991	-2.87659	-2.83478	-0.102844	
0.039978	-2.87933	-2.80823	-0.0219727	
-0.0738525	-2.85126	-2.85797	-0.0369263	
-0.155945	-2.79846	-2.97302	-0.171204	
-0.144348	-2.90955	-3.16162	-0.189819	
-0.0183105	-3.01605	-3.36853	-0.164185	
0.156555	-3.04871	-3.53027	0.0384521	
0.283203	-2.98218	-3.5849	0.19104	
0.372925	-2.94067	-3.53699	0.172424	
0.470886	-3.00415	-3.42712	-0.144348	
0.572815	-3.11768	-3.33496	-0.352173	
0.577087	-3.14758	-3.30048	-0.42572	
0.445557	-3.12225	-3.28705	-0.326843	
0.26062	-3.10242	-3.24738	-0.12207	
0.137024	-3.04993	-3.17291	-0.102539	
0.105896	-2.91595	-3.09326	-0.119019	
0.119629	-2.72522	-3.01208	-0.136719	
0.108948	-2.57568	-2.8891	-0.130615	
0.103455	-2.54547	-2.70813	-0.0674438	
0.153809	-2.61475	-2.51465	-0.11322	
0.252686	-2.74261	-2.42462	-0.223083	
0.341797	-3.01239	-2.46521	-0.333252	
0.364075	-3.25409	-2.61627	-0.385132	
0.338135	-3.21381	-2.81372	-0.405884	
0.317688	-2.83173	-2.97272	-0.267639	
0.325317	-2.45972	-3.05573	-0.116272	
0.367737	-2.40479	-3.08685	-0.0280762	
0.429993	-2.60651	-3.06274	-0.0585938	
0.537109	-2.7887	-3.01178	-0.204468	
0.62561	-2.91229	-2.95471	-0.3302	
0.619202	-2.9718	-2.94708	-0.27771	
0.494995	-3.03925	-2.98248	-0.231323	
0.307312	-3.05878	-3.03284	-0.258789	
0.152893	-3.10425	-2.98096	-0.357666	
0.0762939	-3.16986	-2.83447	-0.510864	
0.078125	-3.24249	-2.64282	-0.483704	
0.13031	-3.35938	-2.49115	-0.380554	
0.184631	-3.53821	-2.42584	-0.315857	
0.201416	-3.56689	-2.42645	-0.184937	
0.169983	-3.37372	-2.51343	-0.0683594	
0.161133	-3.0661	-2.62939	0.108337	
0.203552	-2.80365	-2.73224	0.170288	
0.295105	-2.76581	-2.79053	0.0308228	
0.425415	-2.89612	-2.7774	-0.117798	
0.570984	-3.1662	-2.74231	-0.090332	
0.691833	-3.396	-2.70325	0.132446	
0.726929	-3.33191	-2.67975	0.323792	
0.674438	-3.08868	-2.63275	0.414734	
0.571594	-2.80579	-2.56165	0.411682	
0.444641	-2.73499	-2.48138	0.300598	
0.3302	-2.74963	-2.40814	0.20874	
0.261536	-2.73651	-2.29675	0.0598145	
0.252991	-2.61017	-2.13654	-0.0506592	
0.271301	-2.56775	-1.96899	-0.133362	
0.281372	-2.612	-1.86981	-0.177917	
0.301208	-2.76184	-1.86707	-0.218811	
0.367737	-2.87384	-1.94275	-0.216064	
0.466003	-2.90466	-2.08313	-0.346375	
0.527954	-2.85187	-2.26166	-0.524597	
0.561523	-2.78442	-2.41364	-0.722046	
0.604248	-2.84515	-2.50153	-0.644226	
0.705872	-3.01147	-2.51312	-0.43457	
0.831299	-3.19336	-2.48718	-0.504761	
0.912781	-3.18848	-2.45178	-0.641785	
0.878906	-2.99652	-2.44507	-0.753479	
0.744019	-2.87323	-2.50183	-0.69519	
0.578308	-2.90222	-2.56226	-0.785522	
0.467529	-2.94952	-2.49725	-1.0788	
0.441895	-2.91046	-2.28119	-1.34277	
0.466309	-2.83905	-2.03094	-1.34888	
0.503235	-2.85675	-1.84509	-1.22559	
0.508118	-2.96967	-1.78802	-1.23169	
0.489197	-3.13812	-1.84357	-1.38153	
0.447998	-3.12195	-1.98425	-1.52893	
0.449829	-2.98523	-2.1524	-1.53931	
0.533447	-2.86316	-2.26196	-1.51154	
0.718079	-2.90131	-2.28027	-1.50818	
0.93689	-3.14789	-2.26776	-1.61407	
1.10596	-3.30231	-2.28821	-1.68884	
1.18011	-3.22876	-2.32483	-1.77338	
1.15417	-3.0661	-2.35016	-1.84418	
1.06995	-2.99622	-2.31842	-1.6217	
0.977173	-3.09265	-2.27722	-1.29059	
0.878601	-3.2901	-2.26898	-1.02875	
0.77301	-3.32306	-2.23877	-1.03912	
0.660706	-3.21533	-2.11304	-1.43372	
0.583191	-2.94891	-1.87469	-1.67725	
0.587463	-2.63763	-1.61896	-1.61407	
0.632324	-2.53571	-1.51947	-1.33728	
0.632019	-2.65839	-1.61743	-1.15326	
0.549927	-2.88177	-1.84998	-1.10443	
0.425415	-3.0957	-2.12402	-1.04675	
0.367126	-3.20496	-2.37701	-0.932922	
0.419922	-3.26355	-2.5592	-0.760193	
0.551147	-3.36609	-2.62543	-0.771484	
0.70343	-3.39417	-2.55493	-1.02142	
0.789795	-3.45337	-2.41028	-1.44043	
0.793762	-3.58337	-2.33643	-1.79047	
0.737915	-3.68713	-2.41028	-1.92291	
0.691528	-3.76892	-2.56714	-1.83441	
0.686646	-3.74786	-2.63184	-1.77643	
0.691528	-3.70361	-2.5235	-1.97327	
0.64209	-3.65326	-2.33124	-2.17041	
0.548401	-3.47809	-2.22839	-2.09137	
0.455322	-3.22174	-2.27692	-1.71021	
0.444641	-3.01544	-2.41241	-1.39374	
0.487061	-3.04047	-2.56653	-1.54694	
0.510254	-3.23639	-2.69409	-1.75018	
0.480652	-3.37555	-2.79633	-1.71661	
0.453796	-3.367	-2.86102	-1.2677	
0.490417	-3.23914	-2.8775	-0.846558	
0.636902	-3.28796	-2.82532	-0.789795	
0.855408	-3.47382	-2.74139	-1.06781	
1.0788	-3.74908	-2.67395	-1.42761	
1.2439	-3.95508	-2.65808	-1.57898	
1.2973	-3.97339	-2.63489	-1.73645	
1.21582	-3.89771	-2.53815	-2.01874	
1.02814	-3.80615	-2.34467	-2.40875	
0.796509	-3.71002	-2.1759	-2.7005	
0.597534	-3.72864	-2.12036	-2.83478	
0.479126	-3.72467	-2.20245	-2.76764	
0.461121	-3.7085	-2.38586	-2.65625	
0.507813	-3.71277	-2.60834	-2.51404	
0.570374	-3.68866	-2.82898	-2.49512	
0.635986	-3.68103	-2.99103	-2.50671	
0.690918	-3.67981	-3.0722	-2.2583	
0.750732	-3.66852	-3.11401	-1.78192	
0.808716	-3.7088	-3.12073	-1.3208	
0.863037	-3.83484	-3.09143	-1.20819	
0.966492	-3.80859	-3.05023	-1.41876	
1.14136	-3.67462	-3.03223	-1.62964	
1.37634	-3.51776	-3.03558	-1.63239	
1.54297	-3.47107	-2.92938	-1.63971	
1.50818	-3.54645	-2.62024	-1.74683	
1.25397	-3.58826	-2.21039	-2.04163	
0.896301	-3.60718	-1.98151	-2.36786	
0.568542	-3.67645	-2.11914	-2.53784	
0.347595	-3.74207	-2.54791	-2.47375	
0.229797	-3.72894	-2.99286	-2.23602	
0.147095	-3.63068	-3.30383	-1.96747	
0.067749	-3.45947	-3.47351	-1.72668	
0.0106812	-3.32001	-3.55957	-1.43494	
0.00366211	-3.26721	-3.58978	-1.19019	
0.0579834	-3.33405	-3.55377	-1.06781	
0.109558	-3.40881	-3.4903	-1.0965	
0.131531	-3.40088	-3.48663	-1.18134	
0.175476	-3.35358	-3.58673	-1.06659	
0.333252	-3.35907	-3.66608	-0.761108	
0.587769	-3.41675	-3.5733	-0.525513	
0.839233	-3.44055	-3.24829	-0.523071	
0.968933	-3.33496	-2.80701	-0.751038	
0.957642	-3.27911	-2.49084	-1.10107	
0.864868	-3.36182	-2.39075	-1.48743	
0.72876	-3.47748	-2.46979	-1.70074	
0.550537	-3.45276	-2.65686	-1.74805	
0.341492	-3.27057	-2.89886	-1.62537	
0.14801	-3.0722	-3.15826	-1.5451	
0.0476074	-2.99774	-3.3609	-1.41785	
0.0784302	-3.02643	-3.43109	-1.27106	
0.193481	-2.98584	-3.39996	-1.15173	
0.301514	-2.95166	-3.33984	-1.28113	
0.312195	-2.89734	-3.34961	-1.5033	
0.2771	-2.93304	-3.45337	-1.37085	
0.306702	-3.1842	-3.55438	-0.874329	
0.458984	-3.32214	-3.5202	-0.35553	
0.700378	-3.22754	-3.2959	-0.336609	
0.91095	-2.95349	-2.99438	-0.891724	
1.01593	-2.77924	-2.75604	-1.52374	
1.02692	-2.94434	-2.6709	-1.9104	
0.956421	-3.23364	-2.73163	-2.01447	
0.811462	-3.37128	-2.83783	-2.00104	
0.613708	-3.32275	-2.9541	-2.00836	
0.402527	-3.25378	-3.0661	-2.07184	
0.256042	-3.20618	-3.21228	-2.16064	
0.209045	-3.08655	-3.3429	-1.90308	
0.231934	-2.88879	-3.45123	-1.60797	
0.244141	-2.64587	-3.53485	-1.31622	
0.212402	-2.53204	-3.59894	-1.24725	
0.142822	-2.49054	-3.65662	-1.34918	
0.124512	-2.52472	-3.67462	-1.46606	
0.194702	-2.58148	-3.6203	-1.65436	
0.326538	-2.66724	-3.49487	-1.77399	
0.447693	-2.75146	-3.33649	-1.74835	
0.467529	-2.76215	-3.2019	-1.65314	
0.399475	-2.69073	-3.11401	-1.47827	
0.325928	-2.50824	-3.04443	-1.44135	
0.314941	-2.29797	-2.99469	-1.35773	
0.359497	-2.1698	-2.97638	-1.28021	
0.378418	-2.16797	-2.96661	-1.28815	
0.351257	-2.36694	-2.93182	-1.4386	
0.317688	-2.54639	-2.83112	-1.73279	
0.325623	-2.36511	-2.73987	-1.9281	
0.366516	-1.99768	-2.74139	-1.92535	
0.393066	-1.55762	-2.88483	-1.7746	
0.446167	-1.41876	-3.06702	-1.59332	
0.545044	-1.56097	-3.18939	-1.48682	
0.664673	-1.67572	-3.23456	-1.48499	
0.751038	-1.85364	-3.24463	-1.604	
0.764465	-2.04102	-3.28094	-1.78558	
0.680847	-2.2287	-3.33008	-1.94305	
0.482178	-2.31415	-3.37494	-1.88446	
0.19104	-2.18353	-3.4375	-1.76483	
-0.0546265	-1.99005	-3.48358	-1.75629	
-0.154419	-1.89392	-3.49426	-1.89026	
-0.109863	-1.87775	-3.43353	-1.95557	
-0.0497437	-1.91742	-3.34869	-1.8985	
-0.0485229	-1.87531	-3.25836	-1.72241	
-0.102844	-1.92566	-3.15094	-1.63666	
-0.1474	-1.99646	-3.02521	-1.64978	
-0.145569	-2.03339	-2.89398	-1.82617	
-0.118103	-1.90063	-2.75177	-1.95831	
-0.0674438	-1.71356	-2.57721	-2.0343	
-0.0134277	-1.61346	-2.43042	-2.02271	
0.0100708	-1.62964	-2.40967	-1.94336	
0.00549316	-1.60828	-2.56683	-2.01874	
0.0164795	-1.57501	-2.81616	-2.19177	
0.0946045	-1.61316	-3.00507	-2.276	
0.200195	-1.7038	-3.08655	-2.13776	
0.235596	-1.70929	-3.11066	-1.79321	
0.136414	-1.56586	-3.13629	-1.65405	
-0.0210571	-1.30707	-3.13629	-1.7688	
-0.196838	-1.09161	-3.10913	-1.92932	
-0.340881	-0.953674	-3.06244	-2.13745	
-0.458374	-0.941772	-3.00018	-2.13562	
-0.527649	-1.02631	-2.89642	-2.04956	
-0.507202	-1.15387	-2.7536	-1.90887	
-0.42511	-1.18713	-2.65137	-1.86371	
-0.334473	-1.10199	-2.58972	-1.99707	
-0.262451	-1.09161	-2.52197	-2.19116	
-0.201416	-1.13312	-2.43439	-2.28149	
-0.139465	-1.29761	-2.42981	-2.22168	
-0.072937	-1.4325	-2.5882	-2.04224	
0.00640869	-1.49689	-2.8595	-1.95984	
0.124512	-1.56219	-3.08868	-1.97815	
0.254211	-1.64429	-3.17841	-2.00806	
0.325317	-1.71997	-3.14667	-1.92169	
0.292664	-1.75171	-3.0838	-1.82556	
0.198975	-1.71234	-3.09021	-1.8045	
0.109863	-1.60889	-3.16345	-1.83105	
0.0650024	-1.53107	-3.21289	-1.94702	
0.0686646	-1.37848	-3.16284	-1.89026	
0.125427	-1.21246	-3.02887	-1.7453	
0.230408	-1.11023	-2.91809	-1.54999	
0.315857	-1.22223	-2.86987	-1.45905	
0.346069	-1.45447	-2.78442	-1.36444	
0.33844	-1.52191	-2.58453	-1.42548	
0.342102	-1.30798	-2.30865	-1.48346	
0.366211	-0.867615	-2.10541	-1.60126	
0.369873	-0.593262	-2.10541	-1.80603	
0.34668	-0.724792	-2.28241	-1.92566	
0.36499	-1.07849	-2.47833	-1.84021	
0.488892	-1.43524	-2.59766	-1.59027	
0.672607	-1.59882	-2.61963	-1.39221	
0.78949	-1.67542	-2.63062	-1.31134	
0.753174	-1.77155	-2.64954	-1.31592	
0.578003	-1.76544	-2.70111	-1.20056	
0.394592	-1.62903	-2.7478	-1.06445	
0.267944	-1.40869	-2.76825	-0.991516	
0.194702	-1.25519	-2.77283	-1.02875	
0.147095	-1.22955	-2.78412	-1.08673	
0.0860596	-1.28387	-2.83905	-1.11572	
0.0494385	-1.30707	-2.88635	-1.24908	
0.067749	-1.28052	-2.81555	-1.23993	
0.1297	-1.21307	-2.57965	-1.1322	
0.216675	-1.20056	-2.26654	-0.824585	
0.259399	-1.29669	-2.06818	-0.583496	
0.264587	-1.52191	-2.10907	-0.509033	
0.297852	-1.63483	-2.3642	-0.396729	
0.447388	-1.57593	-2.62878	-0.26947	
0.698547	-1.43677	-2.75543	-0.223999	
0.897827	-1.41602	-2.76245	-0.353699	
0.918579	-1.55975	-2.78259	-0.552063	
0.788574	-1.63666	-2.88605	-0.527039	
0.594482	-1.57562	-2.99469	-0.328064	
0.423889	-1.34186	-3.01392	-0.0390625	
0.313416	-1.09161	-2.96997	0.0915527	
0.300598	-1.01166	-2.96326	0.0112915	
0.404053	-1.07849	-3.0188	-0.0799561	
0.578003	-1.22345	-3.06976	-0.139771	
0.738525	-1.30829	-3.01666	-0.177917	
0.836182	-1.36444	-2.84363	-0.382385	
0.863647	-1.45325	-2.61108	-0.647278	
0.857849	-1.60706	-2.42981	-0.955505	
0.857544	-1.73187	-2.37427	-1.10016	
0.887146	-1.79993	-2.45667	-0.984802	
0.949402	-1.78009	-2.64832	-0.829773	
1.04858	-1.74744	-2.8363	-0.58197	
1.16974	-1.7099	-2.92603	-0.334473	
1.26862	-1.73523	-2.87323	-0.212708	
1.26801	-1.76361	-2.77222	-0.187073	
1.16394	-1.7334	-2.70935	-0.296326	
1.00647	-1.63239	-2.71088	-0.445557	
0.888977	-1.50024	-2.74689	-0.538635	
0.832825	-1.40869	-2.79358	-0.524292	
0.819397	-1.33575	-2.81616	-0.51178	
0.804443	-1.28143	-2.76917	-0.589905	
0.768738	-1.21796	-2.63214	-0.726013	
0.738525	-1.19507	-2.40631	-0.920105	
0.774231	-1.22437	-2.17468	-0.948181	
0.855103	-1.30951	-2.05231	-0.859985	
0.890198	-1.29028	-2.08313	-0.690002	
0.848999	-1.19751	-2.23846	-0.487366	
0.785217	-1.04675	-2.41394	-0.319214	
0.797729	-1.02173	-2.55127	-0.232239	
0.873108	-1.13678	-2.63916	-0.172729	
0.9021	-1.28387	-2.68036	-0.202942	
0.840759	-1.3501	-2.67303	-0.17334	
0.734863	-1.32599	-2.60193	-0.0534058	
0.643005	-1.20728	-2.53571	-0.00274658	
0.575867	-1.06293	-2.5235	-0.150452	
0.50415	-0.979004	-2.56317	-0.365906	
0.451965	-0.985413	-2.57507	-0.289307	
0.445862	-1.0025	-2.49603	0	
0.478821	-0.975647	-2.34955	0.198669	
0.526428	-0.863953	-2.23053	0.22583	
0.560303	-0.835571	-2.23358	0.101013	
0.567322	-0.923157	-2.33673	0.0283813	
0.549011	-0.884094	-2.47253	0.0360107	
0.565491	-0.73822	-2.60651	0.0576782	
0.671082	-0.578003	-2.72675	-0.0878906	
0.887451	-0.551758	-2.80762	-0.205383	
1.13525	-0.739136	-2.85065	-0.369263	
1.27014	-0.952454	-2.85553	-0.436401	
1.21643	-1.08154	-2.83569	-0.454712	
1.01807	-1.09558	-2.78168	-0.484009	
0.805969	-0.98877	-2.72003	-0.509949	
0.685425	-0.844421	-2.71576	-0.539856	
0.657654	-0.819092	-2.84058	-0.430908	
0.681152	-0.768738	-3.0188	-0.212097	
0.701904	-0.525208	-3.0957	-0.0900269	
0.732117	-0.26001	-2.92755	-0.211182	
0.774841	-0.161438	-2.53784	-0.394287	
0.801086	-0.378113	-2.15851	-0.533752	
0.792847	-0.678101	-2.01141	-0.441589	
0.739441	-0.706482	-2.14874	-0.306702	
0.66864	-0.484924	-2.44843	-0.212402	
0.656433	-0.333862	-2.73682	-0.0863647	
0.717468	-0.280762	-2.92114	0.151367	
0.825195	-0.381165	-2.96539	0.228882	
0.882263	-0.462036	-2.91229	0.0875854	
0.813904	-0.516357	-2.80701	-0.314636	
0.675049	-0.558472	-2.72095	-0.651855	
0.584106	-0.591431	-2.69745	-0.581055	
0.584106	-0.620728	-2.71149	-0.325623	
0.632019	-0.65094	-2.75909	-0.220947	
0.644531	-0.65918	-2.82104	-0.405579	
0.594788	-0.531616	-2.83173	-0.74585	
0.554504	-0.357971	-2.7066	-0.897522	
0.600586	-0.106812	-2.41241	-0.821228	
0.73761	0.0717163	-2.03857	-0.778809	
0.839844	0.0442505	-1.78375	-0.791016	
0.803223	-0.108032	-1.77856	-0.929565	
0.669861	-0.281372	-2.04346	-1.10474	
0.619812	-0.363464	-2.45209	-1.15509	
0.740967	-0.382385	-2.83173	-1.11908	
0.961304	-0.466614	-3.06824	-1.0672	
1.12823	-0.533752	-3.1604	-1.12183	
1.16638	-0.505676	-3.15063	-1.20453	
1.07269	-0.402832	-3.1134	-1.08978	
0.924072	-0.262756	-3.05267	-0.834656	
0.786133	-0.226135	-2.97516	-0.719604	
0.686035	-0.330505	-2.94006	-0.937195	
0.628357	-0.448914	-2.93121	-1.23474	
0.609131	-0.400391	-2.8833	-1.31653	
0.655212	-0.153198	-2.72644	-1.16119	
0.776672	0.114746	-2.49817	-1.02295	
0.912781	0.15625	-2.31079	-1.13739	
0.960083	-0.0418091	-2.24518	-1.45264	
0.874023	-0.302124	-2.34039	-1.77979	
0.721741	-0.574036	-2.55432	-1.95892	
0.632935	-0.713501	-2.84149	-1.80145	
0.690308	-0.738831	-3.09906	-1.45844	
0.839844	-0.748291	-3.24951	-1.21338	
0.942688	-0.785217	-3.31299	-1.18317	
0.90332	-0.783997	-3.3313	-1.29395	
0.733643	-0.680847	-3.39813	-1.38733	
0.531006	-0.533142	-3.51959	-1.47827	
0.37384	-0.465393	-3.63007	-1.45172	
0.303955	-0.422668	-3.67035	-1.34186	
0.309448	-0.423584	-3.63281	-1.1322	
0.345154	-0.472412	-3.55438	-0.96344	
0.393982	-0.581055	-3.461	-0.991211	
0.449829	-0.59082	-3.33801	-1.10657	
0.52948	-0.56366	-3.16071	-1.32477	
0.643921	-0.535278	-2.93396	-1.49689	
0.745544	-0.569458	-2.77557	-1.763	
0.811768	-0.662842	-2.78259	-1.99158	
0.84259	-0.762939	-2.97607	-2.19238	
0.887451	-0.858154	-3.27698	-2.30591	
0.946655	-0.933533	-3.55774	-2.18811	
0.980835	-0.827637	-3.75336	-1.92902	
0.94635	-0.691833	-3.89374	-1.59729	
0.863647	-0.636902	-3.9859	-1.43646	
0.777893	-0.766296	-4.03839	-1.39923	
0.737305	-0.890198	-4.01978	-1.34674	
0.744324	-0.982666	-3.96149	-1.26556	
0.767212	-1.0202	-3.92944	-1.26312	
0.768433	-1.05652	-3.90411	-1.37482	
0.719604	-1.08124	-3.87512	-1.6153	
0.653992	-0.999146	-3.84552	-1.9516	
0.65033	-0.95459	-3.83514	-2.21252	
0.718079	-1.03485	-3.83453	-2.20367	
0.838623	-1.13159	-3.80219	-2.13348	
0.932007	-1.14197	-3.7207	-2.10236	
0.965881	-1.08154	-3.57727	-2.2821	
0.909729	-0.911255	-3.42773	-2.4884	
0.783386	-0.814819	-3.32306	-2.56073	
0.643921	-0.726624	-3.32794	-2.51617	
0.553284	-0.722656	-3.43903	-2.49176	
0.553284	-0.864563	-3.58734	-2.62085	
0.555115	-0.914917	-3.70483	-2.66815	
0.490112	-0.791931	-3.79639	-2.44904	
0.376892	-0.576172	-3.88123	-2.09198	
0.271301	-0.411682	-3.96271	-1.7746	
0.249329	-0.423279	-4.0274	-1.66504	
0.296326	-0.558777	-4.03625	-1.73157	
0.355225	-0.688171	-4.01672	-1.96625	
0.391846	-0.711365	-4.0329	-2.39777	
0.432434	-0.715332	-4.09058	-2.93304	
0.559998	-0.759888	-4.10797	-3.02887	
0.76355	-0.80658	-4.02374	-2.76855	
0.955811	-0.746765	-3.81622	-2.40936	
1.0379	-0.614624	-3.59436	-2.40967	
1.01929	-0.549927	-3.45245	-2.63275	
0.962219	-0.605469	-3.42285	-2.77618	
0.87677	-0.68512	-3.55591	-2.73438	
0.755005	-0.706787	-3.79669	-2.68799	
0.598145	-0.677795	-4.08875	-2.72156	
0.436401	-0.549927	-4.36859	-2.7536	
0.309448	-0.441589	-4.57855	-2.71637	
0.22644	-0.418701	-4.70673	-2.60193	
0.211487	-0.586243	-4.76471	-2.45483	
0.250244	-0.774231	-4.76044	-2.36389	
0.294495	-0.740967	-4.70062	-2.19269	
0.319824	-0.493774	-4.56909	-1.96106	
0.352173	-0.290833	-4.35272	-1.83228	
0.450745	-0.247192	-4.07227	-2.04712	
0.647583	-0.308838	-3.78967	-2.40448	
0.91095	-0.369568	-3.5968	-2.65839	
1.13068	-0.458679	-3.53241	-2.65869	
1.1908	-0.667114	-3.52844	-2.6123	
1.04034	-0.892944	-3.47076	-2.68921	
0.760498	-1.04248	-3.34869	-2.92542	
0.495911	-1.05469	-3.2196	-3.0835	
0.346985	-0.997314	-3.19885	-3.24524	
0.350952	-0.900574	-3.3197	-3.43262	
0.419617	-0.798645	-3.57849	-3.44543	
0.46936	-0.72113	-3.89404	-3.26111	
0.450134	-0.643616	-4.17236	-2.66327	
0.377502	-0.466309	-4.33868	-2.00043	
0.317688	-0.235291	-4.34479	-1.56738	
0.302734	-0.0112915	-4.245	-1.5271	
0.30426	0.245361	-4.10126	-1.68091	
0.290527	0.40802	-4.02527	-1.80115	
0.267639	0.444336	-4.04236	-1.77643	
0.338745	0.22522	-4.08386	-1.82739	
0.570068	-0.156555	-4.02191	-2.02057	
0.937805	-0.499268	-3.77289	-2.29706	
1.25488	-0.726013	-3.4137	-2.58331	
1.38306	-0.882263	-3.06885	-2.73407	
1.30646	-0.782776	-2.85767	-2.80426	
1.13403	-0.634766	-2.81006	-2.86469	
0.958557	-0.466919	-2.94983	-2.93121	
0.791931	-0.489197	-3.2251	-3.10822	
0.603638	-0.65979	-3.53973	-3.25745	
0.394592	-0.803528	-3.76526	-3.38684	
0.211792	-0.802917	-3.85223	-3.4967	
0.100098	-0.655823	-3.84216	-3.4491	
0.0402832	-0.453796	-3.82782	-3.31299	
-0.0183105	-0.308533	-3.88275	-3.15979	
-0.102234	-0.243835	-4.03473	-3.10699	
-0.130615	-0.203552	-4.20746	-3.01178	
-0.0622559	-0.130005	-4.32404	-2.92572	
0.0753784	-0.0790405	-4.31396	-2.85217	
0.227661	-0.0759888	-4.15771	-2.88086	
0.377808	-0.249939	-3.92365	-3.15369	
0.570068	-0.51178	-3.67981	-3.36823	
0.803833	-0.699768	-3.50677	-3.38959	
1.02539	-0.752869	-3.41492	-3.25012	
1.1731	-0.714722	-3.3609	-3.14667	
1.22437	-0.757446	-3.33344	-3.172	
1.19415	-0.776367	-3.33282	-3.17047	
1.1142	-0.785217	-3.396	-3.08777	
1.01593	-0.748596	-3.52814	-2.97638	
0.908508	-0.695496	-3.65112	-2.93549	
0.786133	-0.669861	-3.76312	-2.94525	
0.644531	-0.570679	-3.84735	-2.87506	
0.490112	-0.490112	-3.91602	-2.69073	
0.345154	-0.435791	-4.00208	-2.54791	
0.282898	-0.453796	-4.06891	-2.55737	
0.308228	-0.474854	-4.09912	-2.65808	
0.384521	-0.493774	-4.08173	-2.70782	
0.462341	-0.462646	-4.01794	-2.68982	
0.527649	-0.498047	-3.9563	-2.64435	
0.640259	-0.61615	-3.90717	-2.69287	
0.81604	-0.646057	-3.86536	-2.82501	
1.04431	-0.613708	-3.81409	-3.01178	
1.2738	-0.500488	-3.71826	-2.94281	
1.49292	-0.495911	-3.57788	-2.68005	
1.67053	-0.525208	-3.45428	-2.35474	
1.79108	-0.501099	-3.36792	-2.17407	
1.86523	-0.410767	-3.25775	-2.27356	
1.92627	-0.320435	-3.10364	-2.37732	
2.00684	-0.270996	-2.91077	-2.42432	
2.11365	-0.1474	-2.72766	-2.42798	
2.21436	-0.0244141	-2.55737	-2.24213	
2.2522	0.151672	-2.39258	-1.96503	
2.22107	0.239258	-2.2699	-1.67999	
2.12555	0.300903	-2.22351	-1.67847	
2.0108	0.320129	-2.2583	-1.8515	
1.88019	0.37384	-2.34009	-1.9574	
1.69983	0.326233	-2.47284	-1.69159	
1.51611	0.239258	-2.63733	-1.38153	
1.39313	0.115967	-2.77039	-1.34735	
1.40686	0.0500488	-2.81708	-1.7215	
1.56586	-0.0585938	-2.80273	-2.32758	
1.78528	-0.294495	-2.83203	-2.81158	
1.96442	-0.555725	-2.92206	-3.01147	
1.98792	-0.628052	-3.07465	-2.8479	
1.78314	-0.412903	-3.27209	-2.57935	
1.43097	-0.102844	-3.47839	-2.33734	
1.07056	-0.090332	-3.6734	-2.30164	
0.833435	-0.24231	-3.82446	-2.565	
0.755005	-0.391235	-3.86047	-2.66968	
0.760803	-0.303955	-3.81561	-2.51923	
0.758362	0.0640869	-3.74908	-2.18628	
0.721436	0.282593	-3.76465	-2.01294	
0.643005	0.349121	-3.92487	-2.12219	
0.570374	0.269775	-4.17908	-2.32819	
0.530701	0.176697	-4.35272	-2.4942	
0.557251	0.122681	-4.36371	-2.57782	
0.657349	-0.0109863	-4.20441	-2.69348	
0.809631	-0.231323	-3.97247	-2.8186	
0.965271	-0.45166	-3.73993	-2.94586	
1.12976	-0.487366	-3.52264	-3.13019	
1.32813	-0.387878	-3.34076	-3.36212	
1.54053	-0.210571	-3.19733	-3.55835	
1.65955	-0.166016	-3.07678	-3.5083	
1.58539	-0.149231	-2.98187	-3.20007	
1.32263	-0.130005	-2.94769	-2.97211	
0.993042	0.0360107	-3.01392	-2.83844	
0.716553	0.262146	-3.12927	-2.78595	
0.569153	0.431519	-3.25287	-2.72339	
0.525513	0.490723	-3.34839	-2.66418	
0.517578	0.496521	-3.46008	-2.70355	
0.491333	0.516663	-3.64166	-2.72827	
0.433044	0.58136	-3.84155	-2.76367	
0.379028	0.713196	-3.98071	-2.71332	
0.351868	0.849304	-3.97583	-2.70752	
0.35553	0.906982	-3.86292	-2.76367	
0.393677	0.8078	-3.73444	-2.87537	
0.521851	0.587158	-3.62488	-2.78595	
0.748596	0.36438	-3.52142	-2.64404	
1.01593	0.197449	-3.38287	-2.53387	
1.2262	-0.00366211	-3.26111	-2.67578	
1.32355	-0.236816	-3.18329	-3.00995	
1.25641	-0.441284	-3.17993	-3.31299	
1.04492	-0.556641	-3.27362	-3.48175	
0.734253	-0.516052	-3.46619	-3.42377	
0.4422	-0.354614	-3.70758	-3.17749	
0.260315	-0.137634	-3.94012	-2.78656	
0.186768	0.104065	-4.09576	-2.44324	
0.153809	0.281677	-4.15192	-2.44904	
0.098877	0.444641	-4.1098	-2.65198	
0.0183105	0.617676	-3.96332	-2.85278	
-0.0567627	0.741577	-3.76099	-2.81799	
-0.106201	0.762024	-3.61542	-2.6532	
-0.102234	0.615845	-3.58032	-2.56622	
-0.0631714	0.41687	-3.67096	-2.6593	
-0.0152588	0.278015	-3.81317	-2.8064	
0.0744629	0.187378	-3.82782	-3.05786	
0.260315	0.0634766	-3.60626	-3.17688	
0.575562	-0.267029	-3.21075	-3.25775	
0.895691	-0.640259	-2.84454	-3.21716	
1.06262	-0.957642	-2.71698	-3.15186	
1.01166	-1.11816	-2.90833	-3.1015	
0.813293	-1.13678	-3.31207	-3.13568	
0.569153	-1.03607	-3.78326	-3.13202	
0.344238	-0.863647	-4.17206	-3.17139	
0.154114	-0.658875	-4.42047	-3.03986	
-0.00305176	-0.458984	-4.52454	-2.85889	
-0.109863	-0.238953	-4.50653	-2.64221	
-0.15564	-0.0384521	-4.40552	-2.4295	
-0.155945	0.0424194	-4.26758	-2.22748	
-0.148926	0.0637817	-4.14337	-1.90399	
-0.152893	0.111694	-4.03839	-1.71051	
-0.131226	0.180969	-3.95508	-1.83594	
-0.0537109	0.15564	-3.88855	-2.16553	
0.0616455	-0.107117	-3.81561	-2.39502	
0.155334	-0.336304	-3.69537	-2.49146	
0.247803	-0.485229	-3.47107	-2.50061	
0.346985	-0.539551	-3.14514	-2.72797	
0.464172	-0.671082	-2.83844	-3.08624	
0.549316	-0.931091	-2.67059	-3.34961	
0.559082	-1.16302	-2.73926	-3.41125	
0.51239	-1.33301	-3.02338	-3.28705	
0.430298	-1.38672	-3.40302	-3.06488	
0.301514	-1.32904	-3.74237	-2.71698	
0.140991	-1.14075	-3.96088	-2.37274	
-0.0238037	-0.870667	-4.08661	-2.26654	
-0.141296	-0.646973	-4.17145	-2.22107	
-0.209961	-0.545044	-4.24286	-2.24243	
-0.248718	-0.497742	-4.26361	-2.21802	
-0.253601	-0.365295	-4.22119	-2.26288	
-0.20874	-0.133667	-4.09424	-2.4234	
-0.093689	0.179749	-3.90839	-2.52625	
0.114441	0.145874	-3.65326	-2.54486	
0.357056	-0.177307	-3.36304	-2.53998	
0.56366	-0.648804	-3.1131	-2.6358	
0.641479	-1.04858	-2.95502	-2.82806	
0.594482	-1.23688	-2.91016	-2.88879	
0.505371	-1.29608	-2.95532	-2.77832	
0.463867	-1.27319	-3.06671	-2.56348	
0.490723	-1.2323	-3.20007	-2.55524	
0.535278	-1.23444	-3.31604	-2.78168	
0.499268	-1.27319	-3.41858	-2.93854	
0.335388	-1.28235	-3.56567	-2.92847	
0.100708	-1.2262	-3.75916	-2.67273	
-0.0900269	-1.05835	-3.93982	-2.42279	
-0.169983	-0.823059	-4.02618	-2.22351	
-0.156555	-0.575562	-3.98376	-1.96869	
-0.078125	-0.439758	-3.85742	-1.83594	
0.0549316	-0.428162	-3.73657	-1.76056	
0.223083	-0.512695	-3.70483	-1.82434	
0.361938	-0.613098	-3.73871	-1.9574	
0.434265	-0.641174	-3.80798	-2.1524	
0.460815	-0.663757	-3.85468	-2.39014	
0.474243	-0.668945	-3.88977	-2.68127	
0.491028	-0.753174	-3.88641	-2.80914	
0.490417	-0.87677	-3.83453	-2.80884	
0.477905	-1.03851	-3.7384	-2.69958	
0.471497	-1.18042	-3.63831	-2.74231	
0.455933	-1.19232	-3.62274	-3.12744	
0.424805	-1.15234	-3.68103	-3.36121	
0.370483	-1.08124	-3.78601	-3.16742	
0.291138	-0.982666	-3.89709	-2.65198	
0.196228	-0.769043	-3.96362	-2.22015	
0.0881958	-0.413513	-3.97644	-2.10388	
-0.0167847	-0.0854492	-3.92578	-2.1759	
-0.12085	0.0350952	-3.86963	-2.29218	
-0.215149	-0.0698853	-3.86017	-2.45117	
-0.232849	-0.337524	-3.9212	-2.56805	
-0.158386	-0.391235	-3.99353	-2.63733	
-0.0494385	-0.275879	-4.05609	-2.64557	
0.0537109	-0.135193	-4.09424	-2.74292	
0.15686	-0.153809	-4.07532	-2.94617	
0.301514	-0.505676	-3.97461	-3.29437	
0.502319	-0.798645	-3.77075	-3.54309	
0.672607	-0.912781	-3.54828	-3.57849	
0.788269	-0.857544	-3.46344	-3.31238	
0.824585	-0.741577	-3.5614	-2.95807	
0.793457	-0.722351	-3.76221	-2.80304	
0.706177	-0.761108	-3.93707	-2.8299	
0.610046	-0.753174	-4.01398	-2.83813	
0.522461	-0.675354	-4.01154	-2.78778	
0.4422	-0.516663	-4.04266	-2.61597	
0.34668	-0.360413	-4.1333	-2.41058	
0.23468	-0.27771	-4.27246	-2.14417	
0.172424	-0.245667	-4.35455	-1.8924	
0.204773	-0.269165	-4.33624	-1.80084	
0.294495	-0.256958	-4.25598	-1.75842	
0.368042	-0.236816	-4.18762	-1.64917	
0.402527	-0.252991	-4.15527	-1.54999	
0.451355	-0.250244	-4.07227	-1.58386	
0.568542	-0.330505	-3.89404	-1.76025	
0.758057	-0.461731	-3.67126	-2.12158	
0.966492	-0.726318	-3.54095	-2.45483	
1.12274	-1.04828	-3.56995	-2.68158	
1.18774	-1.32141	-3.65631	-2.8064	
1.14502	-1.45966	-3.72772	-2.83447	
1.03333	-1.44958	-3.77228	-2.76703	
0.904236	-1.46393	-3.88092	-2.59613	
0.802612	-1.48438	-4.07043	-2.41913	
0.733643	-1.38336	-4.30817	-2.24426	
0.662537	-1.06354	-4.51782	-1.9989	
0.556641	-0.585938	-4.68048	-1.66412	
0.413208	-0.213318	-4.75281	-1.22681	
0.272217	-0.0643921	-4.73785	-0.917664	
0.19104	-0.0961304	-4.66003	-0.723877	
0.179749	-0.175476	-4.5752	-0.737305	
0.194092	-0.266724	-4.52576	-0.971985	
0.201721	-0.354309	-4.4986	-1.12885	
0.192871	-0.491638	-4.4632	-1.1972	
0.215759	-0.548706	-4.37592	-1.08948	
0.314636	-0.546265	-4.19708	-0.970764	
0.486755	-0.532837	-3.94928	-1.06598	
0.710449	-0.664063	-3.66486	-1.30493	
0.954285	-0.924988	-3.43842	-1.5625	
1.1499	-1.22437	-3.38226	-1.78314	
1.24664	-1.39435	-3.56323	-1.82129	
1.19324	-1.36719	-3.92426	-1.7511	
1.03577	-1.11877	-4.30786	-1.57318	
0.85022	-0.706482	-4.6109	-1.39984	
0.686951	-0.354614	-4.82788	-1.31439	
0.567017	-0.0976563	-4.95636	-1.14594	
0.465393	-0.0143433	-5.00305	-0.994263	
0.369568	0.0231934	-4.94446	-0.818481	
0.293274	-0.00976563	-4.78088	-0.775452	
0.250244	0.0335693	-4.57794	-0.884399	
0.245361	0.124512	-4.42352	-0.943298	
0.232849	0.273743	-4.40918	-1.02814	
0.216064	0.363464	-4.46991	-0.960999	
0.258179	0.266113	-4.4754	-1.04645	
0.422974	-0.00152588	-4.28192	-1.20758	
0.690918	-0.319824	-3.88397	-1.43921	
0.943298	-0.630798	-3.4848	-1.76147	
1.09589	-0.933838	-3.27209	-2.24792	
1.10504	-1.13922	-3.32062	-2.80304	
0.993958	-1.27838	-3.56384	-3.30872	
0.808411	-1.35223	-3.87695	-3.52539	
0.606995	-1.38397	-4.18701	-3.47717	
0.450439	-1.38977	-4.47876	-3.38959	
0.353699	-1.30493	-4.7345	-3.47809	
0.292358	-1.15387	-4.93286	-3.60352	
0.228577	-0.978394	-5.04486	-3.72192	
0.148315	-0.8078	-5.06073	-3.63251	
0.0610352	-0.691223	-5.02106	-3.48907	
-0.00335693	-0.541687	-4.93927	-3.22388	
-0.0198364	-0.350647	-4.81934	-2.90009	
0.0570679	-0.231018	-4.60846	-2.44568	
0.181885	-0.304871	-4.29169	-1.93695	
0.305786	-0.493774	-3.95355	-1.59943	
0.388184	-0.463257	-3.68073	-1.51245	
0.455017	-0.148926	-3.53119	-1.59088	
0.556335	0.161438	-3.50739	-1.7276	
0.674744	0.133057	-3.56567	-1.82892	
0.750427	-0.238647	-3.67554	-1.9458	
0.757141	-0.648193	-3.7616	-2.04468	
0.735474	-0.945435	-3.79303	-2.02271	
0.697632	-1.04614	-3.80707	-1.92871	
0.628357	-0.939636	-3.83575	-1.71509	
0.493469	-0.64209	-3.91235	-1.42822	
0.307617	-0.307007	-4.01978	-1.14777	
0.0860596	-0.0408936	-4.16382	-0.960388	
-0.142517	0.187988	-4.30176	-0.903015	
-0.317993	0.299683	-4.33411	-1.00006	
-0.366821	0.318909	-4.20532	-1.21033	
-0.257568	0.23468	-3.93829	-1.29028	
-0.0454712	0.12207	-3.67889	-1.37604	
0.163879	0.0656128	-3.54675	-1.25977	
0.302124	0.0540161	-3.56873	-1.05804	
0.366211	0.0613403	-3.68225	-0.866394	
0.430603	0.178528	-3.81195	-0.858765	
0.509949	0.253906	-3.9035	-1.19019	
0.586243	0.198975	-3.92578	-1.47186	
0.654602	0.012207	-3.89862	-1.55731	
0.723877	-0.0210571	-3.85315	-1.40503	
0.828857	0.0619507	-3.84613	-1.2265	
0.878601	0.173035	-3.92273	-1.18134	
0.792236	0.0985718	-4.06708	-1.36597	
0.570374	-0.0872803	-4.22577	-1.50757	
0.318909	-0.083313	-4.29779	-1.34888	
0.149536	0.0750732	-4.25049	-1.04156	
0.10376	0.317993	-4.07715	-0.945435	
0.149231	0.447998	-3.85895	-1.20758	
0.182495	0.388184	-3.69507	-1.70074	
0.184021	0.276184	-3.65326	-1.84174	
0.14801	0.210571	-3.7561	-1.62201	
0.123596	0.250549	-3.95355	-1.24359	
0.101013	0.315552	-4.13086	-1.1026	
0.0631714	0.384521	-4.22119	-1.29547	
0.0354004	0.41687	-4.19617	-1.55884	
0.0454712	0.464172	-4.08997	-1.60034	
0.0979614	0.443115	-3.94135	-1.47552	
0.161133	0.375366	-3.80157	-1.21521	
0.210571	0.256958	-3.73749	-1.18347	
0.259399	0.115051	-3.83392	-1.2851	
0.286255	0.0106812	-4.08112	-1.42517	
0.283508	-0.0701904	-4.36462	-1.51245	
0.252991	-0.0708008	-4.52606	-1.57776	
0.205383	-0.105286	-4.45313	-1.7569	
0.168152	-0.00946045	-4.14124	-1.79077	
0.158081	0.178528	-3.68591	-1.45966	
0.134583	0.484009	-3.24493	-0.700989	
0.0601196	0.755615	-2.93884	0.31311	
-0.0894165	0.871887	-2.85767	1.19843	
-0.270386	0.98053	-2.98401	1.89789	
-0.40802	1.16943	-3.21594	2.25525	
-0.444031	1.34033	-3.44574	2.20245	
-0.380554	1.28113	-3.58246	1.57959	
-0.239868	1.04828	-3.61694	0.629272	
-0.0701904	0.714417	-3.62274	-0.223999	
0.0827026	0.493469	-3.68988	-0.698242	
0.166626	0.401306	-3.82843	-0.63324	
0.197754	0.407715	-3.9325	-0.296631	
0.25238	0.332031	-3.90808	-0.13916	
0.328369	0.101929	-3.77014	-0.418396	
0.378723	-0.142212	-3.59924	-1.03882	
0.321655	-0.255432	-3.50311	-1.56891	
0.17395	-0.133667	-3.53363	-1.91193	
0.00823975	0.0558472	-3.68958	-2.12036	
-0.0817871	0.142517	-3.89893	-2.32422	
-0.067749	0.0717163	-4.03259	-2.50153	
-0.0125122	-0.133667	-4.05151	-2.36816	
0.0195313	-0.350647	-4.01062	-2.09198	
-0.0183105	-0.428772	-4.00146	-2.00409	
-0.105896	-0.423584	-4.06158	-2.24213	
-0.174255	-0.423279	-4.11194	-2.64923	
-0.177002	-0.464172	-4.07593	-2.99133	
-0.0863647	-0.536804	-3.98224	-3.05725	
0.0543213	-0.61676	-3.88947	-2.95135	
0.187683	-0.714722	-3.87512	-2.89093	
0.284729	-0.805664	-3.91235	-2.94617	
0.349121	-0.858459	-3.92548	-3.12653	
0.36499	-0.733643	-3.87512	-3.36304	
0.32196	-0.658875	-3.76465	-3.59619	
0.213928	-0.708008	-3.68652	-3.75824	
0.0424194	-0.92041	-3.7027	-3.98865	
-0.1474	-1.04675	-3.82721	-3.9624	
-0.328979	-0.940857	-4.02893	-3.77808	
-0.449219	-0.611877	-4.21967	-3.55072	
-0.507507	-0.24231	-4.35822	-3.38104	
-0.494385	0.0543213	-4.4632	-3.40515	
-0.37262	0.129395	-4.51935	-3.46741	
-0.16449	-0.00213623	-4.52362	-3.42041	
0.0561523	-0.289307	-4.4339	-3.40607	
0.169983	-0.544739	-4.33258	-3.47046	
0.180054	-0.65094	-4.2807	-3.61267	
0.206604	-0.609741	-4.26086	-3.72528	
0.334473	-0.621643	-4.15619	-3.75854	
0.539246	-0.741882	-3.89801	-3.65173	
0.672607	-0.899658	-3.59955	-3.508	
0.638123	-0.914001	-3.41705	-3.4848	
0.501099	-0.705566	-3.43506	-3.57147	
0.390625	-0.51178	-3.5788	-3.6026	
0.371094	-0.465698	-3.76495	-3.53638	
0.377197	-0.606689	-3.93585	-3.35754	
0.289612	-0.740356	-4.07501	-3.10425	
0.0894165	-0.739136	-4.20563	-2.71271	
-0.116577	-0.726013	-4.27795	-2.47375	
-0.206604	-0.7901	-4.26636	-2.44873	
-0.112305	-0.896606	-4.14154	-2.67181	
0.0823975	-0.945435	-3.97949	-2.86438	
0.273132	-0.869141	-3.88367	-2.8009	
0.360718	-0.724182	-3.89862	-2.67975	
0.336304	-0.675659	-4.00726	-2.65137	
0.268555	-0.75531	-4.14886	-2.89948	
0.235901	-0.916138	-4.25293	-3.24554	
0.28656	-1.04462	-4.29108	-3.3255	
0.397949	-1.15204	-4.27704	-3.21198	
0.49408	-1.0672	-4.25751	-2.883	
0.501099	-0.846558	-4.28833	-2.67181	
0.397034	-0.612793	-4.39667	-2.67639	
0.205383	-0.496826	-4.50348	-2.70691	
0.00701904	-0.568542	-4.58313	-2.72125	
-0.119934	-0.637512	-4.62006	-2.6944	
-0.162354	-0.61615	-4.63043	-2.77313	
-0.139771	-0.714417	-4.58344	-2.89032	
-0.104065	-0.895996	-4.45435	-2.98096	
-0.0598145	-1.05408	-4.29901	-2.95441	
0.000915527	-0.969238	-4.21448	-2.96478	
0.0805664	-0.673828	-4.20319	-3.02338	
0.15564	-0.413208	-4.20837	-3.01483	
0.207214	-0.373535	-4.16016	-2.81738	
0.253296	-0.52887	-4.0683	-2.59338	
0.307922	-0.769348	-3.99567	-2.62817	
0.378418	-0.954285	-3.96454	-3.01483	
0.438538	-1.02478	-3.97675	-3.35205	
0.445557	-1.06506	-4.02435	-3.52142	
0.396118	-1.091	-4.09454	-3.43689	
0.285034	-1.10657	-4.20715	-3.21838	
0.161438	-1.09833	-4.34998	-2.97363	
0.0738525	-1.04828	-4.49646	-2.77252	
0.0466919	-1.00708	-4.60327	-2.98676	
0.0732422	-1.05377	-4.62402	-3.28857	
0.101013	-1.23627	-4.59747	-3.5498	
0.109253	-1.47827	-4.53796	-3.52875	
0.116272	-1.54633	-4.45923	-3.36487	
0.13916	-1.37756	-4.38995	-3.42285	
0.178833	-1.13739	-4.3869	-3.66302	
0.174866	-1.09192	-4.47632	-3.8797	
0.120239	-1.35376	-4.55627	-4.01062	
0.090332	-1.70319	-4.51447	-3.99353	
0.153809	-1.83899	-4.35577	-4.06036	
0.273132	-1.70593	-4.20044	-4.14154	
0.346375	-1.39435	-4.17328	-4.22211	
0.306091	-1.19385	-4.2804	-4.18793	
0.187378	-1.20392	-4.42963	-3.92609	
0.0695801	-1.36566	-4.54193	-3.62152	
-0.00274658	-1.55914	-4.62616	-3.55072	
-0.0396729	-1.61621	-4.69513	-3.64288	
-0.0772095	-1.51093	-4.73999	-3.77197	
-0.138245	-1.33728	-4.71893	-3.70148	
-0.201721	-1.14685	-4.65881	-3.50342	
-0.229492	-0.988159	-4.59259	-3.3493	
-0.200195	-0.866699	-4.5639	-3.33038	
-0.14801	-0.869751	-4.56543	-3.40027	
-0.103455	-0.956116	-4.56482	-3.34412	
-0.0646973	-1.03333	-4.54041	-3.29803	
0.00793457	-1.10077	-4.46747	-3.3316	
0.1297	-1.19202	-4.34418	-3.35297	
0.289612	-1.35437	-4.20898	-3.10822	
0.452271	-1.48895	-4.11865	-2.65045	
0.536804	-1.53564	-4.11163	-2.2113	
0.491028	-1.60187	-4.16473	-2.10144	
0.302734	-1.68854	-4.23157	-2.24945	
0.0546265	-1.6922	-4.29901	-2.38983	
-0.147705	-1.46393	-4.34052	-2.33643	
-0.270996	-1.05377	-4.35059	-2.10175	
-0.348511	-0.65155	-4.32922	-1.96472	
-0.409241	-0.51239	-4.2746	-1.88324	
-0.436096	-0.680237	-4.25629	-1.93695	
-0.41626	-0.849609	-4.30084	-2.00653	
-0.374146	-0.871887	-4.39423	-1.99829	
-0.331726	-0.716248	-4.42352	-2.07092	
-0.266418	-0.613708	-4.33685	-2.13257	
-0.168457	-0.706177	-4.20776	-2.2821	
-0.0579834	-0.887451	-4.14215	-2.37915	
0.039978	-1.07483	-4.18335	-2.42035	
0.108948	-1.17126	-4.27612	-2.49969	
0.164185	-1.24786	-4.32678	-2.58453	
0.205078	-1.22192	-4.30756	-2.61078	
0.211792	-1.16638	-4.23584	-2.55981	
0.174866	-1.09192	-4.17267	-2.48993	
0.0839233	-0.949707	-4.13696	-2.51221	
-0.0564575	-0.771484	-4.13513	-2.54761	
-0.19989	-0.563965	-4.12201	-2.6059	
-0.309448	-0.402222	-4.0387	-2.56348	
-0.354614	-0.227661	-3.90442	-2.36969	
-0.350037	-0.138855	-3.78937	-2.1936	
-0.32074	-0.090332	-3.78296	-2.15881	
-0.257874	-0.0585938	-3.88306	-2.35199	
-0.18219	-0.0616455	-4.02954	-2.5412	
-0.128174	-0.0100708	-4.13849	-2.49359	
-0.120544	-0.0393677	-4.1687	-2.34924	
-0.118103	-0.0683594	-4.14001	-2.33124	
-0.0582886	-0.215759	-4.08844	-2.55493	
0.0521851	-0.335999	-4.12018	-2.71271	
0.147095	-0.429077	-4.25659	-2.64923	
0.151672	-0.398865	-4.46075	-2.4292	
0.0439453	-0.314026	-4.62555	-2.23175	
-0.154114	-0.188904	-4.67865	-2.22717	
-0.345459	-0.131836	-4.63531	-2.42004	
-0.474548	-0.130615	-4.57336	-2.74628	
-0.506592	-0.187988	-4.54285	-2.92664	
-0.473328	-0.30365	-4.55658	-2.87109	
-0.441284	-0.383606	-4.58588	-2.54181	
-0.423889	-0.414124	-4.58557	-2.14417	
-0.422058	-0.405273	-4.55414	-1.94611	
-0.397949	-0.413513	-4.49799	-2.08618	
-0.358582	-0.482178	-4.46045	-2.40387	
-0.341492	-0.618286	-4.45801	-2.76001	
-0.335083	-0.664673	-4.47723	-2.85767	
-0.311584	-0.57312	-4.51752	-2.81189	
-0.250549	-0.40802	-4.57916	-2.72034	
-0.15686	-0.271912	-4.66919	-2.56409	
-0.0448608	-0.273132	-4.77722	-2.5119	
0.0454712	-0.380859	-4.88586	-2.52045	
0.0817871	-0.524902	-4.96552	-2.65656	
0.0363159	-0.635376	-5.0058	-2.79846	
-0.06073	-0.679626	-4.98596	-2.85736	
-0.17395	-0.617371	-4.89166	-2.82501	
-0.296021	-0.428772	-4.75494	-2.85767	
-0.396423	-0.222473	-4.60999	-2.94403	
-0.423889	-0.118408	-4.49768	-3.11981	
-0.358582	-0.214844	-4.46594	-3.21533	
-0.279541	-0.449829	-4.54651	-3.25287	
-0.26825	-0.697327	-4.6524	-3.25104	
-0.325623	-0.689392	-4.69482	-3.25684	
-0.38147	-0.528564	-4.62891	-3.37524	
-0.382996	-0.32135	-4.56055	-3.51166	
-0.305786	-0.162354	-4.61334	-3.58673	
-0.170898	-0.135193	-4.77661	-3.52051	
-0.0723267	-0.134583	-4.94843	-3.41248	
-0.0888062	-0.175476	-5.07477	-3.42712	
-0.226746	-0.242615	-5.14771	-3.39325	
-0.399475	-0.292969	-5.1712	-3.36578	
-0.506897	-0.30426	-5.14252	-3.27423	
-0.542297	-0.298462	-5.07599	-3.20038	
-0.538025	-0.335388	-5.01923	-3.21472	
-0.533142	-0.411682	-4.97406	-3.15125	
-0.507507	-0.508423	-4.93896	-3.10852	
-0.411072	-0.549622	-4.92371	-3.21625	
-0.230103	-0.506592	-4.91791	-3.25256	
-0.0125122	-0.405579	-4.8703	-3.14606	
0.168152	-0.341492	-4.75647	-3.02429	
0.23468	-0.348206	-4.63043	-2.98859	
0.235291	-0.4776	-4.56543	-3.07251	
0.214233	-0.583496	-4.60846	-3.07556	
0.206604	-0.609436	-4.71313	-3.09174	
0.174561	-0.549316	-4.82208	-3.19672	
0.120544	-0.447998	-4.87244	-3.40515	
0.0634766	-0.306702	-4.87549	-3.62915	
0.0311279	-0.150757	-4.83429	-3.84277	
0.0250244	0.0128174	-4.75983	-3.84521	
0.0320435	-0.0656128	-4.66644	-3.72894	
0.0616455	-0.237427	-4.56238	-3.53302	
0.0854492	-0.451965	-4.49707	-3.33466	
0.102234	-0.413208	-4.45313	-3.32245	
0.11322	-0.247192	-4.41589	-3.44788	
0.177612	-0.0204468	-4.33594	-3.53729	
0.327759	0.0234985	-4.19708	-3.55957	
0.508423	-0.100098	-4.02313	-3.48938	
0.651855	-0.312195	-3.90228	-3.4549	
0.72113	-0.513611	-3.90137	-3.50677	
0.762024	-0.658264	-4.05487	-3.63342	
0.824585	-0.840454	-4.30176	-3.76221	
0.881653	-1.02936	-4.56299	-3.73199	
0.884094	-1.13892	-4.77509	-3.42896	
0.804443	-1.08643	-4.91394	-3.02582	
0.686951	-0.908508	-4.96185	-2.79419	
0.58197	-0.744934	-4.97742	-2.87231	
0.515747	-0.621643	-4.95575	-3.01514	
0.479736	-0.592957	-4.953	-3.04352	
0.441589	-0.559082	-4.99451	-2.91382	
0.410767	-0.59082	-5.11444	-2.71637	
0.37384	-0.666504	-5.27161	-2.70447	
0.310669	-0.726013	-5.34576	-2.70142	
0.220947	-0.717163	-5.27222	-2.76215	
0.134583	-0.542908	-5.07721	-2.7774	
0.0909424	-0.373535	-4.84283	-2.77679	
0.116577	-0.380554	-4.63806	-2.79327	
0.222473	-0.595703	-4.53094	-2.88971	
0.386963	-0.787964	-4.5578	-3.01971	
0.559998	-0.921326	-4.72687	-3.11493	
0.65918	-0.962524	-4.95453	-3.10211	
0.639038	-0.862732	-5.17212	-2.92786	
0.531311	-0.593262	-5.29846	-2.65717	
0.402832	-0.202637	-5.36346	-2.56226	
0.284119	-0.000915527	-5.40863	-2.71393	
0.194702	-0.112	-5.44861	-2.77405	
0.144958	-0.307007	-5.4599	-2.66205	
0.137024	-0.30365	-5.45563	-2.42523	
0.180359	-0.198364	-5.45013	-2.27631	
0.27832	-0.101624	-5.46478	-2.33215	
0.380859	-0.192261	-5.43396	-2.47772	
0.42572	-0.340881	-5.28625	-2.66266	
0.375366	-0.38147	-5.04578	-2.74261	
0.322571	-0.358887	-4.80499	-2.74414	
0.361328	-0.411987	-4.68933	-2.75208	
0.482788	-0.53833	-4.70825	-2.77496	
0.587158	-0.631104	-4.81873	-2.7356	
0.604553	-0.674744	-4.92188	-2.58881	
0.533447	-0.696106	-5.01312	-2.50916	
0.439148	-0.76416	-5.09521	-2.51831	
0.343628	-0.77301	-5.19806	-2.58698	
0.247803	-0.688171	-5.31403	-2.6178	
0.14801	-0.536194	-5.44037	-2.58118	
0.0735474	-0.447388	-5.56885	-2.40265	
0.0189209	-0.383606	-5.68207	-2.0105	
-0.0296021	-0.297241	-5.72998	-1.62415	
-0.0924683	-0.250854	-5.68817	-1.51764	
-0.160522	-0.307007	-5.5777	-1.70288	
-0.229187	-0.484314	-5.44586	-1.91345	
-0.303955	-0.640869	-5.32471	-1.88171	
-0.335388	-0.791321	-5.25391	-1.78864	
-0.273132	-0.971375	-5.23193	-1.75751	
-0.0973511	-1.04492	-5.23407	-1.83075	
0.0906372	-0.934753	-5.2298	-1.73767	
0.172729	-0.634155	-5.25269	-1.6275	
0.0991821	-0.34729	-5.34943	-1.54816	
-0.0762939	-0.244141	-5.50629	-1.6333	
-0.264282	-0.338745	-5.65063	-1.76147	
-0.407104	-0.499878	-5.71533	-1.85638	
-0.483093	-0.613098	-5.67322	-1.80847	
-0.507202	-0.58197	-5.58655	-1.86188	
-0.494995	-0.423889	-5.50903	-1.99371	
-0.456238	-0.264893	-5.47577	-2.04285	
-0.392151	-0.25116	-5.46356	-1.87836	
-0.289612	-0.314636	-5.40955	-1.67999	
-0.181274	-0.337524	-5.289	-1.64978	
-0.0747681	-0.268555	-5.14008	-1.89117	
0.0231934	-0.206909	-5.06073	-2.14722	
0.144958	-0.348206	-5.09705	-2.25281	
0.238647	-0.566101	-5.20691	-1.9455	
0.25238	-0.706787	-5.33051	-1.51398	
0.135803	-0.723572	-5.41077	-1.14746	
-0.0430298	-0.657654	-5.45074	-1.13586	
-0.212402	-0.567017	-5.45654	-1.40503	
-0.331421	-0.537415	-5.45563	-1.69861	
-0.404053	-0.635986	-5.45746	-1.88232	
-0.444946	-0.70282	-5.42419	-1.93665	
-0.449219	-0.646057	-5.34607	-2.06512	
-0.400391	-0.338745	-5.24597	-2.21313	
-0.324402	-0.0744629	-5.14893	-2.37854	
-0.26123	-0.057373	-5.01862	-2.55371	
-0.214539	-0.280151	-4.86969	-2.53143	
-0.172729	-0.537109	-4.77509	-2.4411	
-0.130615	-0.59906	-4.8407	-2.20276	
-0.108948	-0.572815	-5.02533	-1.99463	
-0.131226	-0.627441	-5.2243	-1.92566	
-0.2005	-0.741272	-5.36346	-1.93481	
-0.299072	-0.834351	-5.45258	-2.12463	
-0.415649	-0.780334	-5.48157	-2.24884	
-0.542603	-0.551758	-5.38788	-2.17651	
-0.619812	-0.339355	-5.21637	-1.9162	
-0.605774	-0.219727	-5.03662	-1.75446	
-0.550232	-0.275269	-4.93195	-1.76605	
-0.535583	-0.449829	-4.89594	-1.83807	
-0.622864	-0.589294	-4.90723	-1.81458	
-0.804138	-0.586853	-4.90509	-1.69678	
-0.993347	-0.536499	-4.83917	-1.54175	
-1.08398	-0.523682	-4.68811	-1.52557	
-1.00342	-0.630188	-4.534	-1.63086	
-0.740967	-0.752563	-4.47754	-1.82068	
-0.397339	-0.794983	-4.58313	-2.02545	
-0.103149	-0.744324	-4.73907	-2.17621	
0.020752	-0.722656	-4.84894	-2.32635	
-0.0509644	-0.72998	-4.86877	-2.32574	
-0.267029	-0.791931	-4.87183	-2.22046	
-0.495605	-0.869141	-4.93927	-1.93909	
-0.606384	-0.875549	-5.01221	-1.72577	
-0.595093	-0.855408	-5.04486	-1.65771	
-0.526733	-0.700684	-5.01648	-1.7511	
-0.484924	-0.500183	-4.97772	-1.91498	
-0.501404	-0.358276	-4.9826	-2.01111	
-0.558472	-0.342407	-4.99664	-2.12982	
-0.628662	-0.371704	-4.96185	-2.15607	
-0.667114	-0.39917	-4.87	-2.11182	
-0.65155	-0.479126	-4.73419	-2.01599	
-0.563965	-0.583801	-4.60876	-1.96625	
-0.404968	-0.656128	-4.51019	-1.93146	
-0.215149	-0.579224	-4.43634	-2.02179	
-0.0506592	-0.480652	-4.43298	-2.12769	
0.00213623	-0.518494	-4.53339	-2.21375	
-0.0680542	-0.621338	-4.73633	-2.29614	
-0.210571	-0.587769	-5.0119	-2.3056	
-0.346375	-0.41687	-5.25696	-2.18689	
-0.426025	-0.202942	-5.39825	-2.00714	
-0.44342	-0.116882	-5.41687	-1.84204	
-0.427856	-0.12146	-5.29938	-1.71265	
-0.406799	-0.14801	-5.13977	-1.67175	
-0.39856	-0.160522	-4.9881	-1.77185	
-0.393677	-0.159607	-4.88037	-2.00989	
-0.378418	-0.104065	-4.85687	-2.23755	
-0.333557	-0.147705	-4.94232	-2.34314	
-0.207214	-0.225525	-5.1001	-2.36755	
0.0195313	-0.475159	-5.20782	-2.51678	
0.311279	-0.610962	-5.14313	-2.73071	
0.56427	-0.561829	-4.92889	-2.88513	
0.637512	-0.3302	-4.67682	-2.83844	
0.509644	-0.143127	-4.534	-2.68768	
0.248718	-0.145264	-4.54773	-2.66174	
-0.0158691	-0.221558	-4.70001	-2.75146	
-0.15625	-0.306091	-4.89929	-2.78229	
-0.174866	-0.348206	-5.08057	-2.69196	
-0.131531	-0.506287	-5.22736	-2.57355	
-0.105896	-0.736389	-5.31647	-2.44812	
-0.138855	-0.862427	-5.33112	-2.31537	
-0.206604	-0.799561	-5.27374	-2.16431	
-0.272217	-0.555725	-5.15717	-2.03583	
-0.318298	-0.372925	-5.01495	-2.03766	
-0.359192	-0.387268	-4.87549	-2.23907	
-0.386658	-0.541992	-4.7525	-2.47223	
-0.327454	-0.636902	-4.62372	-2.62024	
-0.115967	-0.608215	-4.45282	-2.63397	
0.203552	-0.493774	-4.23126	-2.67395	
0.463257	-0.45929	-4.00177	-2.76886	
0.521851	-0.522461	-3.85071	-2.91382	
0.389709	-0.668335	-3.83881	-3.05084	
0.18219	-0.753784	-3.96088	-3.08929	
0.0518799	-0.727234	-4.1748	-3.07892	
0.0088501	-0.664978	-4.40796	-2.99377	
-0.00946045	-0.589294	-4.60083	-2.84851	
-0.0683594	-0.527954	-4.73694	-2.69653	
-0.115051	-0.476379	-4.82758	-2.66815	
-0.0680542	-0.413513	-4.87061	-2.76367	
0.0765991	-0.428772	-4.82758	-3.16345	
0.26001	-0.472717	-4.68994	-3.31268	
0.402222	-0.536499	-4.47815	-3.30505	
0.526733	-0.631409	-4.28894	-3.0957	
0.644836	-0.752563	-4.16656	-2.96814	
0.769653	-0.810852	-4.15405	-3.07892	
0.887146	-0.939026	-4.20349	-3.32733	
0.966797	-1.09222	-4.25201	-3.52448	
0.978394	-1.29181	-4.25751	-3.67065	
0.888977	-1.39984	-4.22699	-3.65814	
0.739136	-1.33972	-4.19373	-3.35114	
0.599365	-1.12	-4.21173	-2.87689	
0.493774	-0.909424	-4.27338	-2.28271	
0.420837	-0.81543	-4.34937	-1.84906	
0.332336	-0.697632	-4.41162	-1.56647	
0.263062	-0.710449	-4.45435	-1.56006	
0.252991	-0.753479	-4.4931	-1.65497	
0.334473	-0.919189	-4.50378	-1.83136	
0.464783	-1.07361	-4.51202	-1.99829	
0.602112	-1.09772	-4.5282	-2.15179	
0.73761	-0.997925	-4.50806	-2.17407	
0.908508	-0.901794	-4.44489	-2.01538	
1.13525	-0.949097	-4.34052	-1.86676	
1.35559	-1.09009	-4.27521	-1.94489	
1.45905	-1.23779	-4.2865	-2.37183	
1.39709	-1.24939	-4.32617	-2.90192	
1.19537	-1.15479	-4.35272	-3.13202	
0.942078	-1.06323	-4.37622	-2.91412	
0.734253	-1.05133	-4.44611	-2.53265	
0.603638	-1.07269	-4.54987	-2.30286	
0.529785	-1.04187	-4.63501	-2.38007	
0.471497	-0.953369	-4.66125	-2.67395	
0.390625	-0.896912	-4.66766	-3.01636	
0.296326	-0.989075	-4.67926	-3.29407	
0.218506	-1.1676	-4.72046	-3.33984	
0.208435	-1.32111	-4.81384	-3.19336	
0.298157	-1.38428	-4.92828	-3.15002	
0.460205	-1.38611	-5.0119	-3.07312	
0.655212	-1.43677	-4.97772	-3.1543	
0.859375	-1.44196	-4.85504	-3.3371	
1.05804	-1.38458	-4.72717	-3.42194	
1.21826	-1.30066	-4.68353	-3.5437	
1.29089	-1.297	-4.72565	-3.56445	
1.26648	-1.37787	-4.76044	-3.64441	
1.19843	-1.43311	-4.7522	-3.69904	
1.08795	-1.37299	-4.73236	-3.6261	
0.923462	-1.22467	-4.76532	-3.37189	
0.728455	-1.02051	-4.85687	-3.01941	
0.566101	-0.846558	-4.92706	-2.73193	
0.496826	-0.74707	-4.89716	-2.68341	
0.475769	-0.65918	-4.7702	-2.93121	
0.457764	-0.549011	-4.64478	-3.08228	
0.434875	-0.341187	-4.599	-2.92358	
0.45105	-0.20874	-4.70123	-2.45422	
0.531616	-0.237122	-4.87946	-1.92017	
0.627136	-0.428467	-5.05249	-1.76392	
0.673828	-0.666504	-5.1181	-1.90552	
0.641174	-0.747986	-4.99817	-1.96655	
0.611572	-0.646973	-4.76349	-1.94397	
0.636902	-0.488892	-4.52728	-1.92139	
0.692139	-0.438232	-4.34967	-2.23145	
0.726929	-0.570679	-4.23218	-2.88269	
0.691833	-0.728455	-4.16107	-3.3017	
0.584412	-0.775452	-4.1925	-3.13477	
0.429993	-0.637817	-4.32343	-2.56439	
0.279236	-0.428467	-4.51843	-2.01172	
0.179138	-0.275879	-4.65302	-1.88538	
0.153198	-0.245056	-4.65485	-2.05627	
0.174866	-0.22583	-4.51965	-2.30927	
0.210571	-0.286865	-4.3454	-2.55859	
0.281677	-0.359497	-4.22333	-2.52594	
0.362854	-0.375671	-4.24561	-2.32239	
0.432129	-0.293884	-4.39606	-1.98425	
0.457153	-0.141296	-4.60388	-1.66931	
0.423584	-0.0787354	-4.77814	-1.50513	
0.37262	-0.172119	-4.87335	-1.51886	
0.355835	-0.255127	-4.86664	-1.72058	
0.385132	-0.247498	-4.76959	-2.01691	
0.452271	-0.126038	-4.57764	-2.33368	
0.515442	-0.0125122	-4.34296	-2.67548	
0.53009	-0.00274658	-4.16626	-2.99805	
0.500488	-0.0494385	-4.10278	-3.02124	
0.425415	-0.0985718	-4.17023	-2.7066	
0.342102	-0.0439453	-4.26758	-2.0694	
0.285339	0.102234	-4.32129	-1.56128	
0.257568	0.310669	-4.31	-1.37268	
0.258789	0.431213	-4.29169	-1.33514	
0.262756	0.408325	-4.32159	-1.31683	
0.27771	0.300903	-4.41284	-1.16913	
0.335388	0.162964	-4.52271	-1.00311	
0.457153	0.0280762	-4.61151	-0.92926	
0.615234	-0.145874	-4.67834	-0.966492	
0.73761	-0.379028	-4.74731	-1.04919	
0.782471	-0.441284	-4.80133	-1.14227	
0.752869	-0.351257	-4.82147	-1.06018	
0.71991	-0.178223	-4.79004	-0.97168	
0.717163	-0.12085	-4.73694	-0.951233	
0.737305	-0.26001	-4.68964	-1.11542	
0.737305	-0.476074	-4.66949	-1.55548	
0.688171	-0.603027	-4.57977	-1.99402	
0.629272	-0.551758	-4.31488	-2.12799	
0.604248	-0.343628	-3.9032	-2.05536	
0.614624	-0.0790405	-3.50006	-1.97937	
0.617676	0.130005	-3.33496	-1.84906	
0.576477	0.280457	-3.51563	-1.61713	
0.484314	0.384521	-3.95844	-1.15997	
0.387268	0.407104	-4.47449	-0.83313	
0.346375	0.327454	-4.85535	-0.794373	
0.395508	0.129395	-5.00763	-0.887451	
0.498047	-0.055542	-5.00793	-0.909424	
0.573425	-0.174255	-4.95148	-0.848694	
0.596924	-0.25238	-4.8996	-0.838013	
0.610657	-0.367737	-4.83582	-0.996094	
0.620728	-0.526123	-4.70978	-1.15753	
0.63385	-0.715942	-4.53064	-1.16333	
0.617676	-0.897522	-4.37439	-1.0968	
0.58075	-1.02661	-4.30054	-1.12061	
0.514526	-1.00861	-4.28802	-1.24237	
0.429993	-0.911255	-4.19373	-1.38123	
0.311279	-0.855103	-3.97919	-1.56219	
0.195923	-0.883789	-3.68347	-1.78711	
0.112305	-0.881348	-3.46375	-1.95038	
0.0820923	-0.772705	-3.39661	-1.83167	
0.117798	-0.59967	-3.44116	-1.59973	
0.189819	-0.509338	-3.55621	-1.4563	
0.267029	-0.524902	-3.71216	-1.48804	
0.333252	-0.5896	-3.91785	-1.54999	
0.394897	-0.595398	-4.11011	-1.40289	
0.474548	-0.548706	-4.24164	-1.34735	
0.552063	-0.46875	-4.30481	-1.4151	
0.5896	-0.380554	-4.35028	-1.4975	
0.570984	-0.345154	-4.42322	-1.37756	
0.539551	-0.367432	-4.53339	-1.16882	
0.539551	-0.442505	-4.64935	-1.21918	
0.576172	-0.48645	-4.72321	-1.50787	
0.646057	-0.569458	-4.68109	-1.62445	
0.729065	-0.709229	-4.53674	-1.4502	
0.806274	-0.884399	-4.34753	-1.25641	
0.833435	-1.11725	-4.17145	-1.45935	
0.765991	-1.24146	-4.06067	-2.06116	
0.648499	-1.28387	-3.99628	-2.63306	
0.539551	-1.13647	-4.00452	-2.81128	
0.491333	-0.885315	-4.11713	-2.63031	
0.514526	-0.696106	-4.28253	-2.1701	
0.580139	-0.65094	-4.46106	-1.81427	
0.665894	-0.767517	-4.5694	-1.81641	
0.744934	-0.914917	-4.55627	-1.89545	
0.783386	-1.0083	-4.47906	-1.83167	
0.775146	-0.956726	-4.4223	-1.62842	
0.732117	-0.844116	-4.48639	-1.44348	
0.672607	-0.725403	-4.63928	-1.51031	
0.626526	-0.67749	-4.75159	-1.64642	
0.591125	-0.753479	-4.71924	-1.78467	
0.555725	-0.788269	-4.55505	-1.79779	
0.566101	-0.81543	-4.37561	-1.6391	
0.614319	-0.844421	-4.26453	-1.5863	
0.689392	-0.956116	-4.23737	-1.7453	
0.740967	-1.09802	-4.23248	-2.0993	
0.759888	-1.18774	-4.19495	-2.45667	
0.7724	-1.23596	-4.13788	-2.66205	
0.770874	-1.27319	-4.05121	-2.72614	
0.718994	-1.30798	-3.97949	-2.66663	
0.602417	-1.27716	-3.9389	-2.59003	
0.45166	-1.18103	-3.95721	-2.54242	
0.305786	-1.07025	-4.05914	-2.55859	
0.202332	-1.00433	-4.21265	-2.52258	
0.106201	-0.894775	-4.31274	-2.3645	
0.0177002	-0.73822	-4.31549	-2.2406	
-0.0537109	-0.594788	-4.2392	-2.13654	
-0.10437	-0.539246	-4.19952	-2.06757	
-0.085144	-0.720825	-4.21783	-1.94489	
0.00457764	-0.777283	-4.24561	-1.67145	
0.162659	-0.706482	-4.23096	-1.45599	
0.349121	-0.542297	-4.17145	-1.31531	
0.475464	-0.526123	-4.11316	-1.25336	
0.484009	-0.776672	-4.05975	-1.43799	
0.372009	-1.08551	-4.02008	-1.88599	
0.223999	-1.20514	-3.96545	-2.21008	
0.146484	-1.25549	-3.86566	-2.25189	
0.159912	-1.25	-3.7088	-1.9574	
0.231628	-1.29242	-3.51471	-1.67358	
0.302124	-1.34552	-3.36487	-1.62842	
0.369568	-1.28296	-3.33893	-1.47766	
0.415039	-1.21613	-3.42773	-1.14441	
0.382385	-1.22681	-3.59131	-1.00189	
0.235291	-1.33209	-3.83484	-1.3623	
0.00946045	-1.51276	-4.15955	-2.06696	
-0.226746	-1.62262	-4.52209	-2.56012	
-0.387573	-1.69006	-4.82605	-2.6358	
-0.476685	-1.74316	-4.98352	-2.5177	
-0.500488	-1.68121	-4.98749	-2.28271	
-0.472717	-1.59668	-4.88739	-2.11792	
-0.43457	-1.48315	-4.77539	-2.13348	
-0.414734	-1.43097	-4.66492	-2.35962	
-0.39093	-1.41724	-4.53918	-2.56927	
-0.307007	-1.39954	-4.34113	-2.72858	
-0.146179	-1.43921	-4.09485	-2.80426	
0.0201416	-1.63849	-3.85315	-2.9187	
0.085144	-1.9928	-3.6795	-2.95319	
0.0183105	-2.07184	-3.61023	-3.125	
-0.14801	-1.84418	-3.63739	-3.16162	
-0.315857	-1.39404	-3.67035	-3.00934	
-0.423889	-1.20209	-3.63495	-2.62207	
-0.463867	-1.24878	-3.573	-2.16675	
-0.467529	-1.32599	-3.62762	-1.99066	
-0.461426	-1.27716	-3.86505	-2.07886	
-0.436401	-1.2207	-4.1745	-2.15057	
-0.40741	-1.27869	-4.3924	-2.09625	
-0.415039	-1.40106	-4.47327	-2.00073	
-0.457153	-1.4621	-4.48914	-1.92566	
-0.49469	-1.42456	-4.44855	-1.99585	
-0.484009	-1.31378	-4.35425	-2.0166	
-0.438232	-1.18835	-4.23676	-2.17743	
-0.375366	-1.0495	-4.1748	-2.23541	
-0.288696	-1.02386	-4.15649	-2.15637	
-0.151672	-1.12671	-4.09912	-2.04132	
0.010376	-1.36108	-3.95111	-1.89636	
0.144958	-1.58569	-3.76373	-1.82251	
0.220947	-1.77032	-3.60596	-1.88232	
0.241394	-1.83563	-3.46497	-2.03491	
0.183105	-1.82068	-3.32733	-2.29767	
0.0405884	-1.79504	-3.31512	-2.56104	
-0.117798	-1.66046	-3.52173	-2.45483	
-0.224304	-1.4328	-3.91449	-2.09564	
-0.245056	-1.19537	-4.30939	-1.60553	
-0.206299	-0.9729	-4.56024	-1.15417	
-0.144043	-0.939941	-4.67133	-0.83313	
-0.114136	-0.980835	-4.6994	-0.549316	
-0.150757	-1.02417	-4.66858	-0.368652	
-0.256348	-1.08704	-4.59167	-0.393982	
-0.329895	-1.10687	-4.4278	-0.551453	
-0.308533	-1.01471	-4.19403	-0.74646	
-0.210571	-0.875854	-3.98224	-0.94696	
-0.100708	-0.71991	-3.88275	-1.03027	
0.0134277	-0.693054	-3.93402	-0.905762	
0.12207	-0.794983	-4.039	-0.760803	
0.212402	-0.965576	-4.07227	-0.718384	
0.286255	-1.20728	-3.95721	-0.985413	
0.359497	-1.42914	-3.69843	-1.46088	
0.44281	-1.62231	-3.35052	-1.83899	
0.482788	-1.62567	-3.02887	-1.88416	
0.444641	-1.50513	-2.85553	-1.69525	
0.346375	-1.3504	-2.92328	-1.55823	
0.204773	-1.27899	-3.18542	-1.47827	
0.0338745	-1.24451	-3.52722	-1.38885	
-0.171814	-1.19202	-3.81531	-1.2442	
-0.389404	-1.06384	-3.98041	-1.19202	
-0.546265	-0.979309	-4.01123	-1.32538	
-0.608826	-1.05865	-3.97156	-1.48834	
-0.576782	-1.27594	-3.94104	-1.54144	
-0.4776	-1.33484	-3.95386	-1.51489	
-0.384827	-1.12427	-4.03839	-1.55975	
-0.330505	-0.792847	-4.16077	-1.62415	
-0.350342	-0.626831	-4.26239	-1.61957	
-0.406799	-0.72052	-4.29413	-1.54144	
-0.39856	-0.88501	-4.21875	-1.6629	
-0.256042	-0.98999	-4.06006	-1.83533	
0.0210571	-1.12091	-3.86475	-1.83411	
0.350342	-1.26251	-3.7149	-1.52435	
0.606689	-1.37421	-3.67432	-1.12274	
0.696716	-1.39923	-3.72589	-1.06415	
0.62561	-1.39648	-3.77869	-1.29669	
0.462341	-1.43951	-3.73016	-1.62262	
0.282288	-1.38428	-3.64044	-1.89911	
0.0897217	-1.27045	-3.63068	-2.03094	
-0.0384521	-1.09741	-3.67523	-1.98669	
-0.101013	-1.08521	-3.70392	-1.79504	
-0.12207	-1.11298	-3.6618	-1.4505	
-0.135193	-1.04279	-3.57819	-1.16425	
-0.149841	-0.84137	-3.50555	-1.28418	
-0.0497437	-0.63385	-3.36029	-1.54602	
0.159912	-0.48645	-3.13568	-1.7453	
0.402832	-0.401001	-2.93884	-1.66962	
0.596619	-0.336914	-2.87689	-1.43127	
0.734558	-0.344543	-2.96173	-1.39862	
0.817871	-0.408325	-3.10547	-1.54205	
0.813904	-0.470581	-3.21625	-1.67603	
0.709534	-0.453796	-3.23334	-1.73981	
0.540466	-0.401001	-3.20251	-1.82037	
0.364685	-0.340271	-3.21838	-1.99951	
0.2005	-0.249634	-3.30902	-2.09229	
0.0616455	-0.189819	-3.40668	-2.02148	
-0.00244141	-0.0152588	-3.4079	-1.81519	
-0.0268555	0.206909	-3.30933	-1.68579	
-0.0701904	0.514526	-3.19427	-1.64642	
-0.159912	0.74585	-3.17627	-1.716	
-0.252686	0.777283	-3.22815	-1.78802	
-0.240173	0.677185	-3.27637	-1.96381	
-0.107117	0.502319	-3.21381	-2.07947	
0.0540161	0.289001	-3.03711	-2.09167	
0.136719	0.0942993	-2.86041	-1.96503	
0.0808716	-0.0997925	-2.80426	-1.85516	
-0.0454712	-0.254517	-2.91595	-1.90369	
-0.171814	-0.392456	-3.13385	-2.04102	
-0.22583	-0.477905	-3.33221	-2.01965	
-0.236816	-0.404663	-3.50342	-1.89423	
-0.267944	-0.202332	-3.60809	-1.65771	
-0.310974	0.0131226	-3.58704	-1.41235	
-0.351257	0.212708	-3.46588	-1.29974	
-0.374451	0.374451	-3.3728	-1.46271	
-0.410156	0.427551	-3.44055	-1.79779	
-0.481262	0.357971	-3.6792	-1.96045	
-0.553284	0.228577	-3.92548	-1.79993	
-0.611572	0.125122	-4.04938	-1.44745	
-0.645142	0.136719	-4.02069	-1.30371	
-0.660706	0.0598145	-3.87543	-1.51031	
-0.646973	-0.108948	-3.69446	-1.9458	
-0.594788	-0.307007	-3.55316	-2.42828	
-0.558777	-0.501404	-3.50983	-2.85645	
-0.563965	-0.595398	-3.61542	-3.15063	
-0.59021	-0.579834	-3.80249	-3.09601	
-0.601501	-0.4776	-3.95294	-2.7475	
-0.609741	-0.390625	-4.02405	-2.33856	
-0.666504	-0.318604	-4.01093	-2.16461	
-0.782166	-0.128784	-3.99231	-2.18567	
-0.890808	0.0765991	-4.00513	-2.28149	
-0.939636	0.136414	-4.0332	-2.24945	
-0.916748	0.0958252	-4.04755	-2.17224	
-0.86792	0.0204468	-4.05334	-2.21863	
-0.832214	0.00152588	-4.04724	-2.27539	
-0.834656	-0.0265503	-4.04968	-2.34161	
-0.84198	-0.126953	-4.00146	-2.38098	
-0.8078	-0.168152	-3.8858	-2.54425	
-0.718689	-0.185547	-3.73138	-2.85706	
-0.588684	-0.263977	-3.62091	-3.1781	
-0.476685	-0.418396	-3.5965	-3.35571	
-0.40741	-0.597534	-3.65814	-3.30414	
-0.378418	-0.691833	-3.7735	-3.02887	
-0.392151	-0.65918	-3.8736	-2.60651	
-0.432129	-0.467834	-3.92395	-2.25647	
-0.473328	-0.297546	-3.91357	-2.19055	
-0.471802	-0.219727	-3.85773	-2.4762	
-0.400391	-0.281372	-3.82233	-2.88513	
-0.297852	-0.335083	-3.81439	-2.91321	
-0.223389	-0.324097	-3.86627	-2.66418	
-0.19989	-0.246277	-3.96667	-2.40417	
-0.21698	-0.309753	-4.0271	-2.40295	
-0.256958	-0.52887	-3.95355	-2.46643	
-0.315857	-0.69397	-3.73322	-2.51404	
-0.363159	-0.671387	-3.49792	-2.67639	
-0.339966	-0.455933	-3.36273	-2.88269	
-0.220337	-0.290527	-3.39264	-2.95502	
-0.0509644	-0.298157	-3.5495	-2.8064	
0.0863647	-0.31311	-3.72437	-2.68768	
0.131836	-0.32135	-3.84186	-2.59125	
0.0741577	-0.329895	-3.90869	-2.58698	
-0.0350952	-0.368958	-3.98224	-2.53143	
-0.128479	-0.385132	-4.06158	-2.49512	
-0.171509	-0.296326	-4.08295	-2.57019	
-0.167542	-0.191345	-4.039	-2.59888	
-0.15625	-0.126648	-3.98651	-2.61383	
-0.158081	-0.125122	-3.95752	-2.44812	
-0.176086	-0.143738	-3.89618	-2.41394	
-0.238342	-0.187378	-3.73688	-2.41119	
-0.328979	-0.26825	-3.50006	-2.4176	
-0.406799	-0.404053	-3.28125	-2.46307	
-0.397949	-0.504456	-3.13873	-2.56317	
-0.311584	-0.59906	-3.08441	-2.78625	
-0.231323	-0.652771	-3.07678	-2.97119	
-0.255432	-0.766907	-3.10608	-3.09296	
-0.389099	-0.754395	-3.14545	-3.02063	
-0.550537	-0.645752	-3.20099	-2.9303	
-0.62439	-0.508118	-3.26843	-2.74628	
-0.603333	-0.470581	-3.32092	-2.43469	
-0.538635	-0.535278	-3.3432	-2.24915	
-0.487976	-0.587769	-3.35999	-2.40845	
-0.489197	-0.560303	-3.39355	-2.62115	
-0.55542	-0.542297	-3.44879	-2.75848	
-0.66864	-0.553284	-3.47076	-2.547	
-0.798645	-0.579834	-3.41614	-2.32147	
-0.890198	-0.430603	-3.28766	-2.34039	
-0.932617	-0.136719	-3.13049	-2.53326	
-0.931702	0.131226	-3.00415	-2.7594	
-0.880432	0.141602	-2.94281	-2.91412	
-0.776978	-0.126343	-2.94983	-2.86926	
-0.637817	-0.386047	-2.99652	-2.82715	
-0.516663	-0.575256	-3.07281	-2.82501	
-0.413513	-0.594482	-3.13782	-2.82013	
-0.339355	-0.601807	-3.18909	-2.82501	
-0.322266	-0.637207	-3.24005	-2.83569	
-0.379333	-0.700684	-3.30048	-2.75665	
-0.4776	-0.746155	-3.40759	-2.66571	
-0.574341	-0.65155	-3.54675	-2.43256	
-0.646973	-0.40863	-3.66089	-2.17407	
-0.700073	-0.166931	-3.7204	-1.98242	
-0.723877	-0.0909424	-3.71613	-1.98151	
-0.69458	-0.221252	-3.65265	-2.1582	
-0.639038	-0.455933	-3.5141	-2.2467	
-0.601196	-0.578918	-3.29132	-2.11243	
-0.585327	-0.502014	-3.00751	-1.83472	
-0.587769	-0.231018	-2.73102	-1.64063	
-0.513	0.00854492	-2.51801	-1.62689	
-0.310059	0.0341797	-2.39594	-1.67603	
-0.0424194	-0.13031	-2.33765	-1.74072	
0.16571	-0.308838	-2.33185	-1.74042	
0.266418	-0.362854	-2.34955	-1.53168	
0.330505	-0.282898	-2.32819	-1.18347	
0.441284	-0.144348	-2.20612	-0.743713	
0.559692	-0.0927734	-2.00043	-0.609741	
0.618896	0.0164795	-1.79596	-0.789795	
0.602112	0.194092	-1.66809	-0.945129	
0.565491	0.429077	-1.60034	-1.00067	
0.579529	0.563965	-1.53564	-0.806274	
0.646057	0.461426	-1.4624	-0.684814	
0.760498	0.333252	-1.37482	-0.607605	
0.856323	0.267029	-1.33423	-0.631104	
0.883484	0.20752	-1.35651	-0.764771	
0.844116	0.150146	-1.41846	-0.881653	
0.771484	0.142212	-1.51978	-1.09222	
0.733337	0.14679	-1.62842	-1.06659	
0.751038	0.167847	-1.75293	-0.870361	
0.808716	0.121765	-1.86127	-0.628662	
0.874939	0.0756836	-1.94244	-0.501404	
0.901489	0.0427246	-2.01599	-0.683594	
0.863342	-0.0537109	-2.12158	-0.9021	
0.738525	-0.19989	-2.28241	-1.17981	
0.558777	-0.359192	-2.46948	-1.26831	
0.366516	-0.480652	-2.61505	-1.09985	
0.209045	-0.488281	-2.67456	-0.878601	
0.11261	-0.480347	-2.66785	-0.808716	
0.0387573	-0.389404	-2.659	-0.950317	
-0.022583	-0.314941	-2.69958	-1.09375	
-0.0732422	-0.328064	-2.79053	-1.06293	
-0.0765991	-0.310364	-2.87445	-0.940247	
0.00701904	-0.35553	-2.90863	-0.899658	
0.103149	-0.381775	-2.88818	-1.01898	
0.157471	-0.319519	-2.85889	-1.16272	
0.145264	-0.266418	-2.84271	-1.22681	
0.122375	-0.253601	-2.8418	-1.21277	
0.118408	-0.373535	-2.85034	-1.21979	
0.106201	-0.55603	-2.88391	-1.22253	
0.0787354	-0.597229	-2.96661	-1.28632	
0.0836182	-0.573425	-3.0603	-1.40411	
0.170898	-0.618896	-3.10486	-1.71051	
0.283203	-0.788879	-3.06946	-1.9577	
0.33905	-0.907288	-2.99316	-2.00378	
0.329285	-0.879517	-2.9364	-1.8631	
0.304565	-0.69397	-2.90039	-1.79413	
0.308533	-0.564575	-2.85919	-1.97113	
0.330811	-0.601501	-2.78442	-2.09961	
0.365906	-0.801392	-2.71515	-1.96533	
0.411072	-0.955505	-2.70264	-1.66748	
0.454102	-0.9552	-2.7478	-1.55151	
0.466003	-0.838623	-2.80762	-1.71692	
0.419922	-0.74585	-2.84393	-1.97235	
0.325317	-0.78949	-2.86774	-2.01904	
0.197754	-0.879822	-2.89124	-1.94031	
0.0497437	-0.918884	-2.91077	-1.76056	
-0.0915527	-0.887451	-2.95197	-1.62781	
-0.19043	-0.829773	-3.03223	-1.72485	
-0.189514	-0.792542	-3.13446	-1.77643	
-0.115051	-0.839233	-3.21228	-1.74377	
-0.00213623	-0.909424	-3.21716	-1.69495	
0.0958252	-0.903015	-3.13446	-1.70074	
0.170288	-0.742188	-3.01636	-1.78467	
0.247192	-0.645142	-2.948	-1.9516	
0.309753	-0.678711	-2.995	-2.03003	
0.35553	-0.859375	-3.13812	-2.00958	
0.368958	-0.989075	-3.29193	-1.84631	
0.345459	-1.00494	-3.3847	-1.73706	
0.263977	-0.99762	-3.414	-1.70837	
0.1474	-0.961914	-3.41156	-1.76361	
0.0476074	-0.897522	-3.39233	-1.80634	
0.012207	-0.774536	-3.36609	-1.74683	
0.0595093	-0.625	-3.34229	-1.67969	
0.141602	-0.496826	-3.33405	-1.55121	
0.185852	-0.403137	-3.34808	-1.41327	
0.161743	-0.379944	-3.35236	-1.35956	
0.107727	-0.421753	-3.3252	-1.48346	
0.0686646	-0.392761	-3.25928	-1.73309	
0.0558472	-0.40741	-3.09998	-2.0874	
0.0631714	-0.497742	-2.85187	-2.40601	
0.0939941	-0.687256	-2.62482	-2.7066	
0.197449	-0.88623	-2.52441	-2.8006	
0.350342	-1.06628	-2.58606	-2.5708	
0.506897	-1.17462	-2.73834	-2.15698	
0.577087	-1.1319	-2.92938	-1.71722	
0.52002	-0.857849	-3.1131	-1.3327	
0.371704	-0.483704	-3.27301	-1.09222	
0.220032	-0.296936	-3.35815	-1.07269	
0.154724	-0.369263	-3.36792	-1.38306	
0.158691	-0.549011	-3.30688	-1.74774	
0.19104	-0.657043	-3.22174	-1.93237	
0.212097	-0.68634	-3.17078	-1.88751	
0.258179	-0.645752	-3.18665	-1.69373	
0.324402	-0.602722	-3.28888	-1.633	
0.378723	-0.581665	-3.38562	-1.66595	
0.390625	-0.540161	-3.34625	-1.76483	
0.379028	-0.450745	-3.13477	-1.91803	
0.379333	-0.335999	-2.82318	-2.12097	
0.418091	-0.207214	-2.56805	-2.41119	
0.518799	-0.149231	-2.4649	-2.62207	
0.686035	-0.325317	-2.50275	-2.5296	
0.852661	-0.629883	-2.63733	-2.23236	
0.935364	-0.78125	-2.82013	-1.86157	
0.863647	-0.60791	-3.03192	-1.85547	
0.707703	-0.284119	-3.22968	-2.14722	
0.553894	-0.121765	-3.36212	-2.5351	
0.45166	-0.214844	-3.40118	-2.75696	
0.381775	-0.428772	-3.38989	-2.79541	
0.318604	-0.602722	-3.33832	-2.7713	
0.272217	-0.72113	-3.23669	-2.73499	
0.256958	-0.701599	-3.09662	-2.73712	
0.264587	-0.61676	-2.98187	-2.80273	
0.245972	-0.537415	-2.93579	-2.90588	
0.185242	-0.588074	-2.9538	-3.01697	
0.144958	-0.681458	-2.95349	-3.0191	
0.181274	-0.743713	-2.92572	-2.91504	
0.325012	-0.751343	-2.92389	-2.7655	
0.532837	-0.815125	-2.98462	-2.83813	
0.682373	-0.969238	-3.08075	-3.01147	
0.708618	-1.13098	-3.17322	-3.20251	
0.595703	-1.20789	-3.25897	-3.23364	
0.421448	-1.18896	-3.33496	-3.12683	
0.291748	-1.04797	-3.36334	-2.84424	
0.231323	-0.881653	-3.3432	-2.48352	
0.202637	-0.766602	-3.28094	-2.13867	
0.155334	-0.733337	-3.2193	-1.96136	
0.0918579	-0.784912	-3.18573	-2.0816	
0.0344849	-0.858154	-3.17688	-2.33978	
-0.00549316	-0.861511	-3.1662	-2.50702	
-0.0463867	-0.818787	-3.09662	-2.60132	
-0.0631714	-0.88562	-2.97394	-2.66266	
-0.0250244	-1.01288	-2.84912	-2.64496	
0.0756836	-1.16394	-2.81464	-2.51617	
0.172119	-1.24603	-2.9126	-2.40204	
0.229492	-1.26068	-3.09174	-2.25739	
0.228271	-1.25671	-3.26782	-2.10907	
0.182495	-1.17493	-3.38348	-1.85242	
0.133362	-1.05927	-3.41278	-1.59973	
0.0628662	-0.979309	-3.37189	-1.50391	
-0.0198364	-1.00555	-3.29407	-1.63269	
-0.10498	-1.07483	-3.22327	-1.88751	
-0.188599	-1.10474	-3.18695	-2.1582	
-0.237732	-1.06659	-3.15002	-2.18353	
-0.262756	-0.978699	-3.07709	-2.10724	
-0.279846	-0.840759	-2.96021	-2.00897	
-0.292053	-0.630493	-2.82196	-2.07397	
-0.292969	-0.528564	-2.67975	-2.15759	
-0.296936	-0.526733	-2.57446	-2.20276	
-0.282288	-0.506897	-2.4942	-2.09625	
-0.237732	-0.358276	-2.43134	-1.93634	
-0.13855	-0.169373	-2.40417	-1.89362	
-0.00396729	-0.185242	-2.42035	-2.08557	
0.119324	-0.420837	-2.45728	-2.35748	
0.185242	-0.66864	-2.46704	-2.5415	
0.175171	-0.789185	-2.43011	-2.3877	
0.0842285	-0.754395	-2.43286	-2.11456	
-0.0576782	-0.651855	-2.55432	-1.94885	
-0.197754	-0.49469	-2.71912	-1.9516	
-0.309448	-0.216675	-2.82074	-1.93237	
-0.393982	0.0210571	-2.77008	-1.79077	
-0.454102	0.101929	-2.66846	-1.68182	
-0.485535	-0.0799561	-2.60254	-1.77216	
-0.478821	-0.380554	-2.57385	-1.95892	
-0.454712	-0.611572	-2.57446	-2.17682	
-0.46875	-0.733032	-2.63519	-2.41913	
-0.509338	-0.660706	-2.78015	-2.58148	
-0.502319	-0.491943	-2.94312	-2.72308	
-0.368347	-0.310669	-3.04321	-2.92389	
-0.146484	-0.277405	-3.0304	-2.99774	
0.0350952	-0.412292	-2.94342	-2.82898	
0.0549316	-0.543213	-2.82532	-2.52899	
-0.0805664	-0.486145	-2.71149	-2.23602	
-0.26886	-0.300598	-2.62817	-2.32147	
-0.39856	-0.0631714	-2.5769	-2.48199	
-0.438843	0.0906372	-2.53601	-2.60071	
-0.424805	0.126343	-2.4939	-2.60712	
-0.402527	0.0637817	-2.48077	-2.57416	
-0.388794	-0.12207	-2.50336	-2.50916	
-0.380249	-0.295105	-2.4939	-2.31018	
-0.385437	-0.383606	-2.42432	-2.13318	
-0.423584	-0.266724	-2.31079	-2.229	
-0.470276	-0.141602	-2.22931	-2.56439	
-0.466614	-0.102539	-2.26654	-2.89398	
-0.357666	-0.241394	-2.43408	-3.09387	
-0.188599	-0.446167	-2.68341	-3.04749	
-0.0717163	-0.566406	-2.93671	-2.83508	
-0.0714111	-0.607605	-3.10883	-2.5528	
-0.171204	-0.623474	-3.17627	-2.39197	
-0.284729	-0.666199	-3.11615	-2.3941	
-0.372925	-0.755615	-2.9538	-2.39929	
-0.428467	-0.834045	-2.76093	-2.30743	
-0.423584	-0.761719	-2.61017	-2.11823	
-0.383301	-0.503845	-2.59644	-2.08008	
-0.317078	-0.183411	-2.68005	-2.18231	
-0.266418	0.0170898	-2.77618	-2.41974	
-0.233459	-0.0198364	-2.7774	-2.50916	
-0.201721	-0.235596	-2.63947	-2.4231	
-0.196533	-0.492249	-2.46246	-2.25922	
-0.228271	-0.69397	-2.3642	-2.1286	
-0.274353	-0.778503	-2.38495	-2.20856	
-0.255432	-0.775146	-2.48627	-2.41211	
-0.127258	-0.773926	-2.58057	-2.66174	
0.0549316	-0.71991	-2.64557	-2.75787	
0.176697	-0.647888	-2.68005	-2.74902	
0.187378	-0.613098	-2.66052	-2.62024	
0.129395	-0.689087	-2.5766	-2.49878	
0.0991821	-0.770264	-2.44232	-2.39807	
0.133667	-0.782776	-2.33368	-2.3584	
0.198669	-0.710449	-2.29218	-2.30652	
0.26123	-0.647583	-2.29248	-2.2168	
0.30426	-0.613403	-2.2821	-2.1991	
0.351868	-0.574036	-2.20459	-2.24548	
0.415344	-0.563354	-2.03186	-2.20886	
0.474854	-0.686951	-1.82251	-2.12311	
0.517273	-0.734863	-1.69647	-1.89392	
0.513	-0.69397	-1.75964	-1.69708	
0.502625	-0.588989	-1.9931	-1.7041	
0.541077	-0.624084	-2.28302	-1.8634	
0.670166	-0.863037	-2.44904	-2.00745	
0.839844	-1.13098	-2.4881	-2.04773	
0.920105	-1.31287	-2.47528	-1.93756	
0.80658	-1.27869	-2.49084	-1.74011	
0.546265	-1.11023	-2.5174	-1.586	
0.306396	-1.00098	-2.51617	-1.54663	
0.201416	-1.05072	-2.50275	-1.72211	
0.219727	-1.18927	-2.52502	-1.93054	
0.257874	-1.19507	-2.55463	-1.90521	
0.249023	-1.11176	-2.51801	-1.7038	
0.210876	-1.10168	-2.34741	-1.54358	
0.189819	-1.26099	-2.09961	-1.59912	
0.214844	-1.33148	-1.93024	-1.83289	
0.239868	-1.29639	-1.92841	-2.07947	
0.202942	-1.10504	-2.08893	-2.01996	
0.151367	-0.966492	-2.28943	-1.82465	
0.205078	-1.02509	-2.44049	-1.58478	
0.422668	-1.21704	-2.50061	-1.4679	
0.68573	-1.45203	-2.5058	-1.50513	
0.791016	-1.64734	-2.48352	-1.56586	
0.68634	-1.69464	-2.46399	-1.57501	
0.509338	-1.56891	-2.43988	-1.4209	
0.421448	-1.38367	-2.39594	-1.13312	
0.443115	-1.27625	-2.37701	-0.875244	
0.459595	-1.36658	-2.42676	-0.724182	
0.39093	-1.50757	-2.51282	-0.741882	
0.258179	-1.60614	-2.53357	-0.79071	
0.168152	-1.69556	-2.38831	-0.884094	
0.174561	-1.74774	-2.12982	-1.02509	
0.236511	-1.7807	-1.91101	-1.27899	
0.254211	-1.64459	-1.86157	-1.59271	
0.197144	-1.48712	-2.00836	-1.79932	
0.140991	-1.42334	-2.28394	-1.84692	
0.191345	-1.48712	-2.52838	-1.67267	
0.365906	-1.64978	-2.63733	-1.51184	
0.567017	-1.80328	-2.59308	-1.42487	
0.632324	-1.88721	-2.50458	-1.42303	
0.498962	-1.89484	-2.48383	-1.51093	
0.232849	-1.90155	-2.57935	-1.62201	
-0.0256348	-1.90979	-2.7475	-1.71722	
-0.162048	-1.8634	-2.90344	-1.69922	
-0.171509	-1.68457	-2.98218	-1.6864	
-0.0738525	-1.49109	-2.88635	-1.67908	
0.0790405	-1.47583	-2.63275	-1.59485	
0.236816	-1.57471	-2.30896	-1.33881	
0.365601	-1.50085	-2.10419	-1.13678	
0.46814	-1.08154	-2.09259	-1.05652	
0.580139	-0.66925	-2.19727	-1.07544	
0.672302	-0.598755	-2.31293	-0.965881	
0.722046	-0.856628	-2.40387	-0.814514	
0.710144	-1.05652	-2.52441	-0.718689	
0.691528	-0.949402	-2.66998	-0.712891	
0.724792	-0.67749	-2.77222	-0.9552	
0.773621	-0.538025	-2.77374	-1.22528	
0.760193	-0.629272	-2.69714	-1.49048	
0.641479	-0.878906	-2.64862	-1.55975	
0.463257	-1.06903	-2.65045	-1.37543	
0.284729	-1.07269	-2.68646	-1.09375	
0.203552	-0.936584	-2.66388	-0.843201	
0.242004	-0.810852	-2.51617	-0.778198	
0.362549	-0.806885	-2.2641	-0.872803	
0.458984	-0.856018	-2.01538	-1.04889	
0.456238	-0.890808	-1.88965	-1.04797	
0.380554	-0.795288	-1.93329	-0.951233	
0.32196	-0.675659	-2.07184	-0.812073	
0.327454	-0.641479	-2.25861	-0.904541	
0.35614	-0.66864	-2.4472	-1.14624	
0.392151	-0.744934	-2.61993	-1.23352	
0.447693	-0.811157	-2.72583	-0.804749	
0.527649	-0.924377	-2.73651	-0.190125	
0.594482	-1.07483	-2.69745	0.310364	
0.575256	-1.29456	-2.67639	0.257263	
0.463867	-1.5387	-2.742	-0.213318	
0.315552	-1.50116	-2.90527	-0.616455	
0.172729	-1.2088	-3.08105	-0.636292	
0.0335693	-0.727539	-3.12988	-0.265198	
-0.0964355	-0.500488	-2.93915	0.0793457	
-0.154419	-0.636597	-2.55646	0.131531	
-0.0958252	-0.92865	-2.19818	-0.136108	
0.03479	-1.1026	-2.09167	-0.489502	
0.128479	-1.09863	-2.28668	-0.688477	
0.0961304	-0.982361	-2.64801	-0.559082	
-0.0402832	-0.864563	-2.99805	-0.217285	
-0.206909	-0.813904	-3.23395	0.0814819	
-0.300598	-0.858154	-3.33954	0.255737	
-0.246582	-0.991211	-3.34625	0.136414	
-0.101013	-1.08856	-3.32153	-0.0515747	
0.0515747	-1.15234	-3.32855	-0.177612	
0.134888	-1.17462	-3.41156	-0.19165	
0.126648	-1.14349	-3.55133	-0.0424194	
0.0521851	-1.04858	-3.66364	0.182495	
-0.0576782	-0.895996	-3.66486	0.386047	
-0.136414	-0.689392	-3.54797	0.429688	
-0.152283	-0.526733	-3.3136	0.404968	
-0.119019	-0.466919	-3.04993	0.44281	
-0.085144	-0.462952	-2.85065	0.502014	
-0.0714111	-0.59082	-2.80853	0.491028	
-0.0726318	-0.626221	-2.91718	0.40802	
-0.0680542	-0.669556	-3.09937	0.384521	
-0.0527954	-0.693054	-3.25317	0.513	
-0.0372314	-0.740662	-3.32123	0.65155	
-0.00152588	-0.812988	-3.29315	0.772705	
0.0982666	-0.910339	-3.22449	0.753784	
0.237427	-0.857849	-3.18848	0.674744	
0.352783	-0.674438	-3.19489	0.773621	
0.346985	-0.473328	-3.23181	0.92865	
0.222778	-0.470276	-3.27209	1.04492	
0.071106	-0.628357	-3.29071	0.924988	
-0.0241089	-0.714417	-3.2785	0.802917	
-0.0256348	-0.649414	-3.22113	0.865479	
0.0396729	-0.542603	-3.0835	1.1676	
0.134583	-0.459595	-2.87628	1.39435	
0.184326	-0.478821	-2.68097	1.2735	
0.143738	-0.507507	-2.59552	0.858459	
0.0292969	-0.500488	-2.69379	0.365601	
-0.115662	-0.512085	-2.88879	0.14801	
-0.219421	-0.554504	-3.08807	0.305786	
-0.264587	-0.617676	-3.21136	0.59082	
-0.236206	-0.680237	-3.26385	0.942993	
-0.14801	-0.722351	-3.24707	1.12885	
-0.00762939	-0.826721	-3.16895	1.29211	
0.134583	-0.92865	-3.07861	1.43097	
0.231323	-0.98175	-3.03925	1.39893	
0.251465	-0.913086	-3.05359	1.26831	
0.190735	-0.801392	-3.09418	1.03516	
0.101929	-0.684204	-3.10974	0.80719	
0.0250244	-0.605469	-3.06824	0.708008	
-0.00671387	-0.551758	-2.94037	0.800781	
0.00823975	-0.482788	-2.74109	1.08459	
0.0439453	-0.411377	-2.55341	1.30249	
0.071106	-0.467529	-2.4646	1.31592	
0.0686646	-0.370789	-2.50671	1.17676	
0.0366211	-0.200806	-2.65778	1.14166	
-0.00732422	-0.0326538	-2.8244	1.29944	
-0.0744629	-0.0982666	-2.95837	1.50909	
-0.1297	-0.330811	-3.01453	1.54663	
-0.148926	-0.498657	-3.01392	1.41327	
-0.106201	-0.48584	-2.97668	1.31042	
-0.0106812	-0.457153	-2.87415	1.25702	
0.0680542	-0.487366	-2.72034	1.14838	
0.0680542	-0.517273	-2.53662	1.03088	
-0.0106812	-0.475464	-2.43195	0.90271	
-0.132751	-0.366821	-2.43561	0.843201	
-0.258789	-0.252991	-2.47375	0.850525	
-0.386353	-0.186157	-2.4942	0.934143	
-0.486755	-0.210571	-2.46948	1.04523	
-0.525513	-0.423279	-2.44904	1.08276	
-0.486145	-0.713196	-2.4646	1.20392	
-0.385437	-0.910339	-2.52655	1.42914	
-0.249939	-0.827332	-2.63184	1.65771	
-0.107117	-0.562744	-2.74567	1.87683	
0.0140381	-0.33783	-2.80029	1.90643	
0.083313	-0.300903	-2.78107	1.84387	
0.123596	-0.427551	-2.75055	1.7569	
0.196533	-0.610962	-2.74963	1.67725	
0.329285	-0.786438	-2.78809	1.59302	
0.45929	-0.857544	-2.82288	1.46667	
0.473633	-0.748291	-2.84302	1.35864	
0.337524	-0.526733	-2.84515	1.36627	
0.114746	-0.422668	-2.8244	1.42578	
-0.0894165	-0.448303	-2.76978	1.35803	
-0.245972	-0.52948	-2.69562	1.21887	
-0.342712	-0.53833	-2.65686	1.03027	
-0.395508	-0.443726	-2.69043	1.0614	
-0.422058	-0.38208	-2.81464	1.24542	
-0.433044	-0.268555	-2.96021	1.38672	
-0.429382	-0.205688	-3.06396	1.20117	
-0.324402	-0.195618	-3.1543	0.594788	
-0.00640869	-0.532837	-3.47412	-1.12457	
0.374146	-1.22711	-4.03656	-3.62427	
0.609741	-2.06543	-4.62524	-6.06354	
0.579224	-2.66815	-4.88281	-7.2821	
0.394897	-2.7948	-4.69635	-6.85455	
0.24231	-2.57721	-4.26086	-5.3894	
0.159607	-2.26044	-3.82294	-3.92334	
0.0714111	-1.95557	-3.49915	-2.83112	
-0.0460815	-1.54572	-3.28247	-2.12982	
-0.162048	-1.16943	-3.09875	-1.75568	
-0.227966	-0.976563	-2.87781	-1.59119	
-0.210571	-1.03455	-2.6651	-1.6922	
-0.121155	-1.21979	-2.51862	-1.71814	
-0.0115967	-1.26953	-2.51282	-1.56494	
0.0360107	-1.15967	-2.61383	-1.2854	
0.0189209	-0.935669	-2.76337	-1.03668	
-0.000305176	-0.737305	-2.9126	-0.965576	
0.0283813	-0.651855	-3.03925	-0.953674	
0.108643	-0.659485	-3.16498	-0.831909	
0.214233	-0.692444	-3.26019	-0.457764	
0.322266	-0.664978	-3.33649	-0.0717163	
0.415955	-0.646667	-3.35876	-0.032959	
0.431519	-0.631104	-3.34137	-0.368652	
0.332336	-0.635071	-3.29895	-0.709839	
0.15564	-0.62439	-3.23547	-0.819092	
-0.00671387	-0.51178	-3.15186	-0.657043	
-0.0946045	-0.339966	-3.01208	-0.645752	
-0.113525	-0.123596	-2.81952	-0.844727	
-0.121155	-0.00274658	-2.56958	-1.19629	
-0.170288	0.0585938	-2.2937	-1.64795	
-0.244751	0.18219	-2.08954	-1.94672	
-0.296631	0.223694	-2.05261	-2.10297	
-0.29541	0.128784	-2.20764	-2.06635	
-0.238037	-0.199585	-2.4649	-1.92505	
-0.195007	-0.500488	-2.71606	-1.78131	
-0.209351	-0.604858	-2.91382	-1.66718	
-0.26001	-0.411987	-3.05786	-1.42059	
-0.252991	-0.0958252	-3.15216	-1.26526	
-0.098877	0.123596	-3.19	-1.20514	
0.182495	0.111389	-3.18268	-1.14014	
0.435181	-0.0570679	-3.20984	-0.978394	
0.518188	-0.241699	-3.31909	-0.793152	
0.385742	-0.301208	-3.46741	-0.797119	
0.149231	-0.240479	-3.49518	-0.901184	
-0.0476074	-0.147705	-3.31146	-0.947266	
-0.128174	-0.0946045	-2.99561	-0.841064	
-0.122375	0.0286865	-2.6889	-0.782471	
-0.101318	0.220947	-2.50336	-0.94696	
-0.108337	0.367432	-2.45331	-1.16302	
-0.177917	0.294495	-2.51617	-1.21338	
-0.293884	0.043335	-2.67792	-1.11481	
-0.430298	-0.184326	-2.89246	-0.988464	
-0.517883	-0.271912	-3.05145	-0.957642	
-0.472107	-0.273438	-3.09784	-1.02234	
-0.278625	-0.245972	-3.07129	-1.08734	
0.00335693	-0.32074	-3.0423	-1.04431	
0.258484	-0.445862	-3.05603	-0.830383	
0.401306	-0.600891	-3.14697	-0.667419	
0.375061	-0.669556	-3.27911	-0.730286	
0.237427	-0.687561	-3.39661	-0.987244	
0.0653076	-0.788879	-3.39508	-1.28632	
-0.0643921	-0.905762	-3.24829	-1.42029	
-0.154419	-0.920715	-3.05542	-1.45477	
-0.271912	-0.748291	-2.92603	-1.42181	
-0.430603	-0.609741	-2.88422	-1.43158	
-0.565491	-0.600281	-2.87567	-1.44928	
-0.604553	-0.710144	-2.88513	-1.40503	
-0.544128	-0.750732	-2.91565	-1.38458	
-0.442505	-0.766296	-2.98035	-1.59302	
-0.360413	-0.839844	-3.01727	-1.84998	
-0.316772	-1.01746	-3.02124	-1.89728	
-0.283508	-1.24054	-3.00415	-1.63239	
-0.233765	-1.31042	-2.97302	-1.30829	
-0.157471	-1.27777	-2.94403	-1.1853	
-0.0814819	-1.22009	-2.88696	-1.23016	
-0.0750732	-1.27869	-2.79999	-1.27869	
-0.157776	-1.41479	-2.67059	-1.30951	
-0.270691	-1.44775	-2.54364	-1.45355	
-0.365906	-1.33942	-2.4527	-1.63147	
-0.403748	-1.15356	-2.44598	-1.59637	
-0.431824	-1.0199	-2.48352	-1.38275	
-0.488281	-0.938416	-2.57813	-1.04706	
-0.571289	-0.848389	-2.71362	-0.792236	
-0.626526	-0.667419	-2.8598	-0.623169	
-0.63324	-0.487671	-2.97241	-0.561218	
-0.591125	-0.358887	-3.02704	-0.510254	
-0.522156	-0.305176	-3.04321	-0.37323	
-0.422668	-0.41687	-3.07983	-0.115662	
-0.304871	-0.651245	-3.14789	0.0933838	
-0.223389	-0.986938	-3.23608	0.102539	
-0.215149	-1.26251	-3.29437	-0.0839233	
-0.273743	-1.362	-3.31573	-0.365601	
-0.318604	-1.1908	-3.28705	-0.544739	
-0.289612	-0.917053	-3.20374	-0.47699	
-0.190125	-0.686035	-3.08289	-0.244141	
-0.0891113	-0.616455	-2.98157	0.101624	
-0.0537109	-0.639343	-2.94281	0.35553	
-0.0814819	-0.686646	-2.9895	0.44281	
-0.145874	-0.749207	-3.10608	0.414429	
-0.227051	-0.755615	-3.22876	0.378418	
-0.334167	-0.655823	-3.33893	0.221558	
-0.429993	-0.552979	-3.39722	0.0793457	
-0.427551	-0.421753	-3.38196	0.0308228	
-0.275879	-0.393982	-3.27454	0.286255	
-0.0463867	-0.395203	-3.11951	0.585938	
0.143127	-0.457458	-2.98615	0.722046	
0.209045	-0.552979	-2.94861	0.604858	
0.172729	-0.671997	-3.00293	0.344543	
0.0601196	-0.77179	-3.04504	0.1474	
-0.105286	-0.870361	-2.99652	0.065918	
-0.290527	-0.978699	-2.87445	-0.015564	
-0.440979	-1.0614	-2.7771	-0.149841	
-0.500183	-1.02875	-2.81128	-0.179138	
-0.472717	-0.807495	-2.9718	-0.180359	
-0.427856	-0.435181	-3.20831	-0.0930786	
-0.449219	-0.144958	-3.43262	-0.202026	
-0.552673	-0.0317383	-3.57483	-0.407104	
-0.65979	-0.152893	-3.6087	-0.439148	
-0.698853	-0.331726	-3.58765	-0.187683	
-0.65033	-0.348206	-3.52844	0.213318	
-0.511475	-0.183105	-3.45978	0.41626	
-0.259705	0.139771	-3.38562	0.427246	
0.0683594	0.352478	-3.32916	0.317688	
0.347595	0.426636	-3.2547	0.26947	
0.43457	0.345459	-3.15338	0.265198	
0.306396	0.218201	-3.02124	0.264282	
0.0546265	0.0598145	-2.89581	0.269165	
-0.212402	-0.101624	-2.84363	0.152893	
-0.397339	-0.175476	-2.86407	0.0595093	
-0.483093	-0.218506	-2.90039	0.0427246	
-0.497742	-0.240784	-2.96448	0.0845337	
-0.497742	-0.230408	-3.03589	0.0335693	
-0.518799	-0.180359	-3.14453	0.0186157	
-0.525818	-0.113831	-3.28217	0.101624	
-0.500488	-0.12207	-3.39508	0.319214	
-0.455933	-0.126648	-3.43506	0.412598	
-0.423889	-0.0753784	-3.38593	0.284119	
-0.388794	-0.0167847	-3.29315	0.139465	
-0.307007	-0.137634	-3.22968	-0.115967	
-0.19989	-0.441895	-3.21381	-0.169678	
-0.114136	-0.673218	-3.24371	-0.201111	
-0.126343	-0.692444	-3.29071	-0.151367	
-0.239258	-0.526733	-3.30994	-0.151672	
-0.375366	-0.463257	-3.25775	-0.307617	
-0.500488	-0.551453	-3.12775	-0.423584	
-0.6073	-0.751648	-2.94525	-0.39093	
-0.732117	-0.91217	-2.79205	-0.309753	
-0.850525	-1.01624	-2.72308	-0.178223	
-0.891113	-1.01135	-2.73346	-0.111694	
-0.836487	-0.930786	-2.84271	0.00701904	
-0.761719	-0.797119	-3.06976	0.202026	
-0.765991	-0.702209	-3.39752	0.235596	
-0.842896	-0.676575	-3.73322	0.230103	
-0.905762	-0.719299	-3.94897	0.196533	
-0.875549	-0.81543	-4.00787	0.186462	
-0.727234	-0.77301	-3.95447	0.250244	
-0.496521	-0.646057	-3.84857	0.254822	
-0.220947	-0.376892	-3.73352	0.158386	
-0.00946045	-0.317078	-3.66516	0.062561	
0.0408936	-0.405884	-3.64594	0.108032	
-0.0946045	-0.513306	-3.66974	0.363464	
-0.315857	-0.518799	-3.65021	0.561218	
-0.485229	-0.436096	-3.50952	0.505981	
-0.562439	-0.279541	-3.26813	0.249634	
-0.567017	-0.153503	-3.0307	-0.116272	
-0.536499	-0.0469971	-2.92725	-0.368958	
-0.526733	-0.0830078	-2.95532	-0.391846	
-0.550842	-0.291138	-3.08167	-0.278625	
-0.595093	-0.443726	-3.21503	-0.110168	
-0.622864	-0.46051	-3.32031	0.00305176	
-0.669861	-0.35614	-3.38776	-0.0418091	
-0.752563	-0.227051	-3.39264	-0.0195313	
-0.823669	-0.186462	-3.3371	0.0442505	
-0.742188	-0.248413	-3.20801	0.223083	
-0.436707	-0.369263	-3.08899	0.272217	
-0.0265503	-0.513611	-3.05389	0.289001	
0.2771	-0.544128	-3.11005	0.408936	
0.351868	-0.548706	-3.18634	0.587769	
0.195618	-0.622253	-3.19336	0.618896	
-0.0897217	-0.783997	-3.03497	0.213318	
-0.357056	-0.908203	-2.72522	-0.336609	
-0.499878	-0.777893	-2.3587	-0.731812	
-0.467529	-0.415039	-2.11334	-0.770874	
-0.306091	-0.0949097	-2.05963	-0.562439	
-0.138245	0.0119019	-2.14996	-0.393372	
-0.0595093	-0.153198	-2.31293	-0.302734	
-0.115051	-0.483398	-2.49268	-0.352478	
-0.245056	-0.650024	-2.67731	-0.291138	
-0.384521	-0.654297	-2.83173	-0.477905	
-0.45166	-0.377808	-2.88177	-0.410767	
-0.386047	-0.122986	-2.85004	-0.186462	
-0.184937	-0.012207	-2.81403	0.255432	
0.0946045	-0.159912	-2.86835	0.6604	
0.314331	-0.410767	-3.03467	0.715942	
0.391541	-0.658875	-3.22784	0.519409	
0.325317	-0.766296	-3.3139	0.248718	
0.193481	-0.762939	-3.2196	-0.0738525	
0.0784302	-0.692444	-2.96204	-0.484314	
0.0088501	-0.637817	-2.6712	-0.88562	
-0.0271606	-0.682068	-2.47589	-1.10992	
-0.0622559	-0.782471	-2.43561	-1.08673	
-0.134583	-0.769958	-2.52258	-0.841064	
-0.246277	-0.624695	-2.62268	-0.545349	
-0.352173	-0.45929	-2.69684	-0.349426	
-0.421448	-0.452881	-2.76855	-0.405273	
-0.456848	-0.563049	-2.83783	-0.609131	
-0.488586	-0.638733	-2.88971	-0.761108	
-0.502014	-0.551758	-2.88055	-0.516663	
-0.439758	-0.449219	-2.80792	-0.166931	
-0.282593	-0.319214	-2.71332	0.166321	
-0.0482178	-0.217896	-2.65045	0.15625	
0.174561	-0.204468	-2.63763	-0.149231	
0.301208	-0.388489	-2.61932	-0.477905	
0.300598	-0.704041	-2.53967	-0.60791	
0.213623	-0.94574	-2.36298	-0.570374	
0.128174	-0.864868	-2.15179	-0.446167	
0.0933838	-0.583496	-1.95343	-0.471191	
0.0888062	-0.359497	-1.83411	-0.704956	
0.0524902	-0.342712	-1.83472	-1.03149	
-0.0259399	-0.513916	-1.94366	-1.28143	
-0.119019	-0.707397	-2.0993	-1.25763	
