-3.94745	-1.70532	-3.49274	-0.658875	
-4.06616	-1.63788	-3.35876	-0.963745	
-4.0741	-1.6806	-3.25592	-1.08765	
-3.9386	-1.81335	-3.27789	-0.922546	
-3.73291	-1.97723	-3.42712	-0.563354	
-3.54462	-2.10938	-3.64685	-0.326538	
-3.45032	-2.19299	-3.84125	-0.433655	
-3.45032	-2.2113	-3.95782	-0.763245	
-3.54309	-2.15668	-3.9917	-1.12549	
-3.69751	-2.04102	-3.98254	-1.30066	
-3.83301	-1.90094	-3.98132	-1.28845	
-3.89801	-1.78467	-4.00024	-1.14197	
-3.88672	-1.7337	-4.02374	-1.02386	
-3.82507	-1.78131	-4.06158	-0.995178	
-3.74481	-1.89453	-4.10339	-0.997925	
-3.66241	-2.03796	-4.12628	-1.02661	
-3.61267	-2.15424	-4.08783	-1.06293	
-3.63068	-2.22015	-3.95721	-1.1615	
-3.685	-2.29462	-3.77228	-1.37054	
-3.71155	-2.41272	-3.5968	-1.44379	
-3.6496	-2.56531	-3.50281	-1.34705	
-3.50983	-2.68951	-3.53394	-1.1499	
-3.37067	-2.73499	-3.67798	-1.07056	
-3.31635	-2.72186	-3.86414	-1.16577	
-3.35449	-2.72064	-3.98804	-1.32477	
-3.42255	-2.74506	-4.039	-1.43005	
-3.46893	-2.77954	-4.05975	-1.48132	
-3.49182	-2.79205	-4.11102	-1.47736	
-3.52753	-2.8067	-4.19373	-1.43982	
-3.59894	-2.86682	-4.28772	-1.38245	
-3.68561	-2.97211	-4.39789	-1.32996	
-3.75275	-3.09875	-4.53278	-1.3443	
-3.74664	-3.19122	-4.61578	-1.38733	
-3.65723	-3.23486	-4.56848	-1.45721	
-3.54065	-3.24829	-4.38965	-1.54663	
-3.47626	-3.26904	-4.22302	-1.64948	
-3.51013	-3.30353	-4.19647	-1.63025	
-3.61176	-3.3429	-4.32312	-1.51428	
-3.71002	-3.3786	-4.49158	-1.42822	
-3.7381	-3.47778	-4.5813	-1.41174	
-3.65173	-3.66516	-4.55353	-1.45386	
-3.49701	-3.87726	-4.43237	-1.48132	
-3.36884	-3.98529	-4.2691	-1.46942	
-3.34137	-3.90778	-4.10736	-1.40137	
-3.39417	-3.70789	-3.97858	-1.31226	
-3.47565	-3.59131	-3.91418	-1.22375	
-3.52203	-3.59467	-3.94836	-1.2149	
-3.52539	-3.703	-4.06372	-1.29486	
-3.50952	-3.78845	-4.21295	-1.40686	
-3.49457	-3.77045	-4.28619	-1.4267	
-3.50739	-3.6731	-4.25201	-1.35834	
-3.54706	-3.55865	-4.14825	-1.28815	
-3.56079	-3.49579	-4.06128	-1.3028	
-3.51929	-3.51501	-4.07043	-1.42029	
-3.44513	-3.56873	-4.17938	-1.60309	
-3.37219	-3.56842	-4.35211	-1.75629	
-3.28705	-3.51898	-4.49127	-1.70837	
-3.16101	-3.50189	-4.5578	-1.51001	
-3.0127	-3.58032	-4.56329	-1.35498	
-2.93304	-3.7384	-4.54926	-1.45416	
-2.9837	-3.86078	-4.52759	-1.76239	
-3.11829	-3.91052	-4.48517	-2.04071	
-3.25012	-3.91205	-4.43115	-2.10541	
-3.32092	-3.89954	-4.422	-2.00562	
-3.34564	-3.8855	-4.46198	-1.91589	
-3.33008	-3.86719	-4.48029	-1.88446	
-3.25531	-3.8205	-4.37042	-1.90094	
-3.1131	-3.69354	-4.12903	-1.90613	
-2.92358	-3.49518	-3.89526	-1.80695	
-2.77222	-3.25806	-3.84552	-1.71875	
-2.73102	-3.00354	-4.00665	-1.58142	
-2.80151	-2.79205	-4.27887	-1.50299	
-2.92297	-2.6474	-4.48914	-1.41418	
-2.98157	-2.60651	-4.49554	-1.34186	
-2.92908	-2.67395	-4.33563	-1.36353	
-2.82318	-2.71942	-4.10736	-1.49811	
-2.73834	-2.67578	-3.94806	-1.71051	
-2.73712	-2.54578	-3.89526	-1.93604	
-2.79572	-2.43378	-3.88733	-2.10419	
-2.89703	-2.39899	-3.88153	-2.16156	
-3.01697	-2.42737	-3.86475	-2.06116	
-3.13568	-2.46521	-3.8681	-1.90979	
-3.22266	-2.47589	-3.90808	-1.82037	
-3.24799	-2.43439	-3.93219	-1.83502	
-3.19153	-2.35748	-3.89648	-1.95679	
-3.08594	-2.29614	-3.80951	-2.08313	
-2.97485	-2.29492	-3.75366	-2.12982	
-2.92786	-2.35016	-3.80615	-2.0816	
-2.97638	-2.37976	-3.96759	-2.05505	
-3.10455	-2.35535	-4.17267	-2.11945	
-3.2312	-2.32178	-4.35333	-2.19818	
-3.25867	-2.37	-4.47998	-2.21375	
-3.14056	-2.53601	-4.54102	-2.09137	
-2.9538	-2.72675	-4.56024	-1.93542	
-2.86926	-2.82074	-4.5459	-1.85699	
-2.98218	-2.78931	-4.52881	-1.85883	
-3.26996	-2.72705	-4.54346	-1.96533	
-3.56537	-2.72247	-4.58496	-2.09595	
-3.77411	-2.77679	-4.63959	-2.25464	
-3.85315	-2.80151	-4.61395	-2.38739	
-3.81073	-2.7243	-4.46106	-2.40845	
-3.70483	-2.57965	-4.28864	-2.34802	
-3.591	-2.40997	-4.21478	-2.23114	
-3.52081	-2.29523	-4.24805	-2.09442	
-3.49976	-2.26685	-4.2981	-1.94183	
-3.5202	-2.30194	-4.32892	-1.82251	
-3.55164	-2.32544	-4.37225	-1.80176	
-3.55042	-2.3114	-4.46869	-1.79108	
-3.47595	-2.28455	-4.58282	-1.76392	
-3.35846	-2.31354	-4.63715	-1.70135	
-3.30078	-2.39136	-4.62646	-1.64886	
-3.34595	-2.46216	-4.54071	-1.72699	
-3.45184	-2.48657	-4.39301	-1.88538	
-3.56232	-2.44812	-4.23065	-2.03491	
-3.67767	-2.3645	-4.08325	-2.14325	
-3.82019	-2.27936	-3.93982	-2.2345	
-3.99048	-2.21436	-3.81561	-2.39105	
-4.14032	-2.19482	-3.78448	-2.65503	
-4.21875	-2.17651	-3.97491	-2.75787	
-4.21539	-2.13348	-4.3811	-2.57996	
-4.14673	-2.01996	-4.841	-2.17926	
-4.08325	-1.85883	-5.14313	-1.84143	
-4.05792	-1.7276	-5.18829	-1.73981	
-4.06525	-1.72058	-5.047	-1.81824	
-4.01764	-1.86249	-4.85535	-1.88934	
-3.85406	-2.07428	-4.71863	-1.87164	
-3.5965	-2.26807	-4.69574	-1.77856	
-3.35114	-2.40479	-4.77325	-1.71265	
-3.23975	-2.51282	-4.92554	-1.7746	
-3.30383	-2.57233	-5.07294	-1.96289	
-3.48572	-2.57385	-5.16968	-2.1225	
-3.69904	-2.52228	-5.22217	-2.20856	
-3.85895	-2.45972	-5.24689	-2.16339	
-3.9151	-2.4057	-5.22675	-2.07001	
-3.85742	-2.35352	-5.10803	-2.00867	
-3.71063	-2.32605	-4.84802	-2.0639	
-3.55438	-2.28699	-4.51294	-2.20703	
-3.46466	-2.24426	-4.23187	-2.37915	
-3.49243	-2.18292	-4.12842	-2.51648	
-3.60046	-2.12555	-4.19006	-2.54974	
-3.71521	-2.0929	-4.30481	-2.45758	
-3.75	-2.08862	-4.3811	-2.29218	
-3.67249	-2.1109	-4.45251	-2.17285	
-3.51471	-2.1463	-4.56238	-2.00806	
-3.37616	-2.19482	-4.72595	-1.82343	
-3.36212	-2.25372	-4.90479	-1.71448	
-3.47046	-2.34192	-5.03876	-1.66351	
-3.62335	-2.44415	-5.0943	-1.74438	
-3.72162	-2.52777	-5.06409	-1.86127	
-3.76312	-2.58026	-5.02319	-1.96167	
-3.79761	-2.57416	-5.06317	-1.99127	
-3.81714	-2.54883	-5.1767	-1.94458	
-3.76038	-2.50427	-5.28412	-1.86707	
-3.61694	-2.3996	-5.27069	-1.84998	
-3.46161	-2.22565	-5.18188	-1.88141	
-3.38196	-2.03644	-5.09918	-1.89758	
-3.35602	-1.93207	-5.04517	-1.8988	
-3.27942	-1.97662	-4.98505	-1.93176	
-3.11859	-2.14905	-4.90387	-2.0639	
-2.92572	-2.33337	-4.86481	-2.14569	
-2.78442	-2.42035	-4.91486	-2.08649	
-2.74048	-2.36694	-5.03357	-1.97327	
-2.76306	-2.24915	-5.14069	-1.92383	
-2.81952	-2.19086	-5.14191	-1.88843	
-2.88513	-2.25311	-4.99115	-1.8689	
-2.94525	-2.39349	-4.70825	-1.86401	
-2.97852	-2.46796	-4.38446	-2.03827	
-2.96295	-2.4408	-4.16443	-2.34436	
-2.883	-2.35229	-4.1272	-2.60834	
-2.7832	-2.31415	-4.27155	-2.71027	
-2.71423	-2.32635	-4.54773	-2.68768	
-2.72736	-2.30957	-4.87457	-2.62146	
-2.82715	-2.19421	-5.15228	-2.54181	
-2.92786	-2.01141	-5.28595	-2.40631	
-2.92328	-1.87836	-5.23071	-2.27142	
-2.74536	-1.85425	-5.06256	-2.23083	
-2.46521	-1.89789	-4.89532	-2.29828	
-2.23267	-1.89606	-4.80286	-2.41638	
-2.12433	-1.77277	-4.78058	-2.46552	
-2.12311	-1.52618	-4.80347	-2.4353	
-2.15485	-1.28815	-4.84192	-2.22443	
-2.18475	-1.18744	-4.82269	-1.95313	
-2.25769	-1.23291	-4.71466	-1.76147	
-2.41669	-1.27441	-4.55231	-1.72211	
-2.61688	-1.20453	-4.44397	-1.87836	
-2.72827	-1.0788	-4.45251	-2.06421	
-2.67487	-1.05255	-4.53674	-2.23572	
-2.48505	-1.1731	-4.6051	-2.46307	
-2.2644	-1.35468	-4.61212	-2.66693	
-2.08893	-1.51398	-4.56238	-2.81067	
-1.97418	-1.60553	-4.5401	-2.79205	
-1.89575	-1.67389	-4.60846	-2.7243	
-1.79352	-1.74469	-4.74884	-2.72369	
-1.71021	-1.8222	-4.8996	-2.75024	
-1.68823	-1.84174	-4.95911	-2.73315	
-1.78101	-1.74957	-4.94537	-2.73712	
-1.91345	-1.58569	-4.9057	-2.73468	
-2.00867	-1.43555	-4.89838	-2.7536	
-2.05322	-1.40289	-4.91669	-2.77222	
-2.0752	-1.51062	-4.86298	-2.78931	
-2.08618	-1.69159	-4.66583	-2.87079	
-2.05566	-1.89362	-4.3692	-2.98584	
-2.01416	-2.05841	-4.14856	-3.06244	
-1.99463	-2.16614	-4.14917	-3.09204	
-2.00531	-2.22626	-4.38171	-3.08105	
-2.00653	-2.25494	-4.69452	-3.03314	
-1.97418	-2.32361	-4.93011	-2.95227	
-1.91803	-2.45575	-5.0296	-2.83539	
-1.84845	-2.65686	-5.0119	-2.81158	
-1.78711	-2.82471	-4.96704	-2.92847	
-1.74316	-2.85431	-4.9057	-3.05939	
-1.75049	-2.77222	-4.85382	-3.14758	
-1.80084	-2.63977	-4.77142	-3.08746	
-1.89636	-2.49908	-4.64569	-3.01178	
-1.98425	-2.35077	-4.47754	-3.01422	
-2.04498	-2.17072	-4.34235	-3.12622	
-2.05536	-2.005	-4.2868	-3.19489	
-2.02362	-1.93604	-4.26849	-3.15613	
-1.97693	-1.99341	-4.20563	-3.05023	
-1.9342	-2.13135	-4.00604	-2.99286	
-1.91589	-2.27417	-3.68073	-3.10547	
-1.94611	-2.32635	-3.32184	-3.33069	
-1.97479	-2.33429	-3.03497	-3.64441	
-1.94183	-2.36053	-2.8894	-3.86871	
-1.84174	-2.43774	-2.9126	-3.87878	
-1.7627	-2.54547	-3.10364	-3.71918	
-1.79443	-2.61505	-3.45093	-3.48328	
-1.93024	-2.65228	-3.8739	-3.34717	
-2.08099	-2.68158	-4.26544	-3.30811	
-2.19238	-2.7179	-4.52637	-3.30261	
-2.27692	-2.73407	-4.62524	-3.29559	
-2.38464	-2.69196	-4.60388	-3.30933	
-2.52258	-2.58453	-4.57184	-3.30109	
-2.63824	-2.46277	-4.60114	-3.26385	
-2.67395	-2.4292	-4.65393	-3.22021	
-2.59125	-2.49664	-4.66492	-3.25104	
-2.43347	-2.5827	-4.58954	-3.29498	
-2.28821	-2.5769	-4.45557	-3.20129	
-2.22412	-2.48596	-4.33044	-3.07007	
-2.24976	-2.41058	-4.25934	-3.0246	
-2.28821	-2.45026	-4.26483	-3.17078	
-2.27173	-2.55554	-4.31885	-3.39752	
-2.21283	-2.63062	-4.34998	-3.53546	
-2.15515	-2.59338	-4.33594	-3.55957	
-2.13959	-2.45117	-4.29779	-3.58246	
-2.16187	-2.29889	-4.26392	-3.59344	
-2.20337	-2.17285	-4.21997	-3.52386	
-2.25403	-2.07001	-4.16595	-3.36548	
-2.2995	-2.00714	-4.13177	-3.28125	
-2.34375	-2.02087	-4.14673	-3.39233	
-2.37	-2.11212	-4.19922	-3.56903	
-2.36816	-2.21771	-4.21387	-3.5614	
-2.33459	-2.28027	-4.17877	-3.40363	
-2.29523	-2.2876	-4.1153	-3.20374	
-2.26013	-2.323	-4.07318	-3.17535	
-2.2229	-2.38373	-4.07898	-3.27026	
-2.16766	-2.45483	-4.08661	-3.34076	
-2.12708	-2.50092	-4.05304	-3.33771	
-2.10419	-2.52899	-3.98499	-3.30872	
-2.11578	-2.53937	-3.89313	-3.31879	
-2.13501	-2.51892	-3.81165	-3.33405	
-2.15179	-2.45392	-3.75977	-3.36182	
-2.16949	-2.3819	-3.74115	-3.37952	
-2.18353	-2.33276	-3.73352	-3.42072	
-2.22076	-2.32269	-3.71887	-3.48755	
-2.25952	-2.33246	-3.71307	-3.58185	
-2.27966	-2.31842	-3.75946	-3.64899	
-2.25952	-2.27661	-3.83698	-3.52386	
-2.22626	-2.18353	-3.90991	-3.26813	
-2.1817	-2.09137	-3.92975	-2.96143	
-2.0993	-2.01996	-3.89252	-2.71576	
-1.96045	-2.01691	-3.8501	-2.61902	
-1.78345	-2.05811	-3.82538	-2.55554	
-1.64551	-2.11548	-3.83392	-2.5116	
-1.5918	-2.15759	-3.84308	-2.50671	
-1.63177	-2.14691	-3.81927	-2.52289	
-1.71539	-2.08954	-3.71552	-2.55859	
-1.78375	-2.00592	-3.55469	-2.56226	
-1.83075	-1.93634	-3.4198	-2.51831	
-1.87531	-1.88232	-3.37677	-2.46643	
-1.9104	-1.83014	-3.38348	-2.3877	
-1.93085	-1.76514	-3.35175	-2.31842	
-1.93939	-1.72363	-3.26843	-2.2818	
-1.94031	-1.71021	-3.22235	-2.25525	
-1.9577	-1.69006	-3.28766	-2.25098	
-1.99646	-1.67877	-3.42743	-2.25189	
-2.05444	-1.68243	-3.54889	-2.25372	
-2.11304	-1.73401	-3.60321	-2.19666	
-2.13043	-1.80634	-3.57849	-2.14508	
-2.10083	-1.83258	-3.49304	-2.10266	
-2.07245	-1.81824	-3.41919	-2.18842	
-2.09351	-1.79901	-3.38654	-2.29065	
-2.16003	-1.8454	-3.39172	-2.44629	
-2.21405	-1.93939	-3.39203	-2.47437	
-2.22382	-2.04956	-3.34869	-2.42188	
-2.20673	-2.12402	-3.31299	-2.37488	
-2.21771	-2.1402	-3.29559	-2.28149	
-2.27692	-2.07489	-3.28094	-2.11853	
-2.30713	-1.96777	-3.23639	-2.01721	
-2.25525	-1.86737	-3.11371	-2.00439	
-2.14111	-1.76453	-2.91595	-2.09564	
-2.03735	-1.69556	-2.72461	-2.2348	
-1.95801	-1.68701	-2.66998	-2.27936	
-1.87408	-1.78131	-2.81128	-2.24579	
-1.71997	-1.94489	-3.08685	-2.19574	
-1.54846	-2.06879	-3.34961	-2.18964	
-1.43982	-2.03003	-3.48907	-2.20856	
-1.44836	-1.81061	-3.50159	-2.1283	
-1.55121	-1.52771	-3.43964	-1.98914	
-1.66718	-1.31134	-3.35022	-1.99982	
-1.73553	-1.25214	-3.23914	-2.09869	
-1.75629	-1.34216	-3.12469	-2.23572	
-1.80145	-1.5564	-3.03162	-2.24915	
-1.8924	-1.78345	-2.99683	-2.19513	
-1.99738	-1.94153	-3.02826	-2.21252	
-2.08099	-1.99127	-3.08655	-2.26898	
-2.13928	-1.96655	-3.0835	-2.2876	
-2.19391	-1.9342	-2.97028	-2.25922	
-2.25494	-1.95038	-2.79938	-2.28485	
-2.24518	-2.03094	-2.68951	-2.35626	
-2.08435	-2.20428	-2.70111	-2.43469	
-1.7746	-2.40784	-2.80823	-2.54608	
-1.46667	-2.54791	-2.94739	-2.59003	
-1.34979	-2.54761	-3.09357	-2.53204	
-1.46301	-2.41394	-3.22876	-2.36176	
-1.66687	-2.21954	-3.32672	-2.28241	
-1.82373	-2.00958	-3.34381	-2.25647	
-1.91925	-1.80634	-3.27637	-2.08801	
-2.03827	-1.65039	-3.15826	-1.81	
-2.20428	-1.5564	-3.01147	-1.59119	
-2.3349	-1.51855	-2.836	-1.62048	
-2.39441	-1.49536	-2.66479	-1.85211	
-2.39258	-1.51489	-2.56317	-1.99493	
-2.36786	-1.56982	-2.54639	-1.97052	
-2.32727	-1.65283	-2.58789	-1.87622	
-2.25677	-1.74011	-2.60895	-1.91284	
-2.1225	-1.82343	-2.5415	-2.06177	
-1.94	-1.89148	-2.38464	-2.25555	
-1.75964	-1.90948	-2.19299	-2.35901	
-1.63574	-1.88477	-2.06848	-2.36938	
-1.62201	-1.86554	-2.09412	-2.38708	
-1.70563	-1.90552	-2.26227	-2.47223	
-1.83228	-1.99463	-2.47955	-2.56256	
-1.97693	-2.0694	-2.66785	-2.60925	
-2.07458	-2.0401	-2.75787	-2.45392	
-2.11334	-1.90094	-2.78137	-2.17377	
-2.11578	-1.6861	-2.76886	-1.85852	
-2.12006	-1.49414	-2.73499	-1.67145	
-2.15179	-1.39282	-2.72064	-1.72882	
-2.19238	-1.44531	-2.72064	-1.95862	
-2.22015	-1.59576	-2.75726	-2.28821	
-2.22626	-1.79657	-2.79144	-2.40601	
-2.19727	-1.98853	-2.80212	-2.32239	
-2.11212	-2.13562	-2.77771	-1.98914	
-1.96594	-2.23328	-2.75787	-1.7572	
-1.81763	-2.24945	-2.80457	-1.79504	
-1.7514	-2.17621	-2.91138	-2.07214	
-1.81305	-2.03522	-3.06671	-2.38892	
-2.00195	-1.88263	-3.21655	-2.55707	
-2.24182	-1.7334	-3.3316	-2.58942	
-2.46246	-1.59271	-3.38989	-2.53357	
-2.60406	-1.47156	-3.41187	-2.53601	
-2.64832	-1.39954	-3.40485	-2.5528	
-2.59979	-1.37604	-3.37067	-2.47711	
-2.4707	-1.38245	-3.29224	-2.31049	
-2.33704	-1.35529	-3.1601	-2.13928	
-2.26166	-1.28693	-2.98035	-2.04987	
-2.25616	-1.21735	-2.76642	-2.05078	
-2.26959	-1.23535	-2.55585	-2.17804	
-2.21771	-1.37482	-2.3996	-2.26288	
-2.08557	-1.61316	-2.34314	-2.21039	
-1.89453	-1.85303	-2.33978	-2.06635	
-1.72974	-2.00592	-2.32391	-1.9873	
-1.65558	-2.04407	-2.26044	-2.08679	
-1.68243	-1.97418	-2.19696	-2.29156	
-1.78375	-1.85944	-2.21893	-2.48505	
-1.9104	-1.71295	-2.33856	-2.60193	
-2.02881	-1.53076	-2.4649	-2.63062	
-2.10083	-1.33942	-2.52808	-2.55859	
-2.13531	-1.18164	-2.53845	-2.38647	
-2.16827	-1.06812	-2.55524	-2.12463	
-2.23541	-1.01288	-2.61566	-1.95038	
-2.31659	-0.967407	-2.66846	-1.96136	
-2.36877	-0.948181	-2.65106	-1.98364	
-2.37915	-0.983887	-2.58087	-1.92657	
-2.37274	-1.08978	-2.53265	-1.83044	
-2.3645	-1.23901	-2.55615	-1.89331	
-2.35077	-1.40411	-2.60101	-2.07275	
-2.32483	-1.57013	-2.60529	-2.33185	
-2.29584	-1.74622	-2.55432	-2.48901	
-2.28699	-1.87012	-2.49329	-2.52411	
-2.28088	-1.93665	-2.49207	-2.51434	
-2.26746	-1.94519	-2.53815	-2.45605	
-2.23419	-1.91406	-2.59827	-2.40356	
-2.21466	-1.84753	-2.61749	-2.37915	
-2.23999	-1.75354	-2.58789	-2.39655	
-2.28333	-1.66626	-2.53265	-2.3761	
-2.25006	-1.58966	-2.52197	-2.35382	
-2.1167	-1.49933	-2.55951	-2.37762	
-1.93359	-1.37665	-2.56653	-2.51373	
-1.81915	-1.22162	-2.47955	-2.6944	
-1.83228	-1.09619	-2.33948	-2.84027	
-1.89819	-1.07361	-2.26746	-2.94647	
-1.91376	-1.20941	-2.33582	-3.00079	
-1.84143	-1.46698	-2.53479	-3.00659	
-1.75262	-1.71661	-2.76733	-2.9895	
-1.74316	-1.8277	-2.96326	-2.9422	
-1.80511	-1.75995	-3.07281	-2.96631	
-1.85486	-1.65649	-3.08289	-3.08319	
-1.83136	-1.65222	-3.01727	-3.22937	
-1.74286	-1.77063	-2.87201	-3.34869	
-1.65436	-1.87653	-2.69348	-3.52539	
-1.59912	-1.83533	-2.55371	-3.62946	
-1.60492	-1.64398	-2.51099	-3.67645	
-1.68365	-1.41235	-2.55737	-3.60992	
-1.80603	-1.25366	-2.60956	-3.40668	
-1.91193	-1.20178	-2.59705	-3.24829	
-1.92841	-1.22559	-2.48505	-3.1012	
-1.87317	-1.2973	-2.33124	-3.09082	
-1.79779	-1.41083	-2.2522	-3.23273	
-1.75629	-1.56311	-2.32239	-3.42529	
-1.74957	-1.72119	-2.54517	-3.63495	
-1.77704	-1.80603	-2.83325	-3.76709	
-1.82678	-1.74805	-3.06427	-3.73962	
-1.88843	-1.57776	-3.2019	-3.62274	
-1.93176	-1.41205	-3.22815	-3.47046	
-1.95984	-1.34583	-3.17444	-3.37097	
-1.9754	-1.41357	-3.08502	-3.34045	
-1.95892	-1.53076	-3.02826	-3.42651	
-1.88995	-1.62018	-3.03131	-3.54431	
-1.78894	-1.65283	-3.09052	-3.5965	
-1.70471	-1.65649	-3.19489	-3.5611	
-1.65924	-1.68518	-3.29987	-3.56201	
-1.61743	-1.69617	-3.34442	-3.63007	
-1.5683	-1.64764	-3.30688	-3.67615	
-1.51062	-1.5799	-3.23212	-3.685	
-1.48071	-1.57593	-3.25165	-3.65173	
-1.48224	-1.66168	-3.39386	-3.5318	
-1.52496	-1.77216	-3.61237	-3.41522	
-1.58417	-1.80359	-3.80341	-3.25104	
-1.62476	-1.77795	-3.90289	-3.1308	
-1.64307	-1.78864	-3.91937	-3.12866	
-1.64764	-1.92841	-3.8974	-3.17841	
-1.61896	-2.13593	-3.82446	-3.19763	
-1.53748	-2.30682	-3.703	-3.1958	
-1.41174	-2.38556	-3.53394	-3.2132	
-1.30219	-2.39899	-3.37555	-3.1546	
-1.23535	-2.41302	-3.3252	-3.01697	
-1.1731	-2.42554	-3.39691	-2.74292	
-1.09222	-2.43622	-3.54309	-2.48016	
-1.03607	-2.44415	-3.65601	-2.32849	
-1.05957	-2.45667	-3.66913	-2.38739	
-1.15326	-2.48322	-3.5672	-2.55432	
-1.27014	-2.49146	-3.43048	-2.6825	
-1.37665	-2.48047	-3.35693	-2.6651	
-1.47247	-2.44446	-3.43933	-2.58636	
-1.57715	-2.39349	-3.65387	-2.52014	
-1.66504	-2.35657	-3.86322	-2.49695	
-1.7395	-2.36755	-3.95447	-2.53784	
-1.81702	-2.43286	-3.88947	-2.58148	
-1.90826	-2.52319	-3.73718	-2.65533	
-1.98364	-2.59064	-3.58093	-2.66266	
-1.99127	-2.61353	-3.48999	-2.54791	
-1.88965	-2.59247	-3.48267	-2.33215	
-1.70685	-2.56866	-3.53729	-2.12402	
-1.54449	-2.58484	-3.61877	-2.11731	
-1.47308	-2.67609	-3.62183	-2.17529	
-1.49628	-2.83478	-3.47717	-2.27936	
-1.57867	-3.01361	-3.22266	-2.3938	
-1.63574	-3.172	-3.01727	-2.54883	
-1.61194	-3.31512	-2.97241	-2.7005	
-1.55182	-3.47839	-3.0719	-2.77618	
-1.51947	-3.58917	-3.15674	-2.6886	
-1.60828	-3.55225	-3.13446	-2.46155	
-1.79901	-3.33466	-3.06305	-2.17407	
-1.99615	-3.08411	-3.02155	-1.94092	
-2.12097	-2.97699	-3.05389	-1.86707	
-2.1701	-3.03345	-3.08807	-2.01447	
-2.16095	-3.17017	-3.02368	-2.21771	
-2.12402	-3.28949	-2.84332	-2.34283	
-2.08771	-3.34839	-2.59888	-2.20703	
-2.06604	-3.33527	-2.41974	-1.96503	
-2.06726	-3.29193	-2.37	-1.84143	
-2.07214	-3.27332	-2.41852	-1.94427	
-2.05475	-3.32947	-2.49176	-2.18994	
-1.9928	-3.48053	-2.51495	-2.39471	
-1.88965	-3.66425	-2.50793	-2.43561	
-1.76514	-3.83484	-2.47284	-2.33521	
-1.6333	-3.95203	-2.45209	-2.26898	
-1.51001	-3.99017	-2.4823	-2.28882	
-1.43494	-3.93066	-2.54364	-2.33093	
-1.45844	-3.7915	-2.6355	-2.3468	
-1.61621	-3.58246	-2.74597	-2.33978	
-1.87347	-3.35419	-2.8891	-2.33643	
-2.11945	-3.15338	-3.03131	-2.34283	
-2.27203	-2.99225	-3.09113	-2.31567	
-2.30133	-2.85492	-3.01514	-2.25403	
-2.2641	-2.69257	-2.87354	-2.16827	
-2.23297	-2.52686	-2.82898	-2.09778	
-2.23633	-2.44843	-2.98096	-2.10632	
-2.24365	-2.52441	-3.20313	-2.1637	
-2.22076	-2.72522	-3.30536	-2.26501	
-2.14233	-2.966	-3.17902	-2.40204	
-2.0224	-3.13171	-2.94556	-2.61139	
-1.92444	-3.18756	-2.82257	-2.74902	
-1.87653	-3.17657	-2.92297	-2.85522	
-1.89301	-3.09784	-3.17505	-2.85187	
-1.93146	-2.98309	-3.414	-2.83569	
-1.95892	-2.85431	-3.51776	-2.8656	
-1.99921	-2.75208	-3.48236	-2.91382	
-2.06818	-2.67944	-3.38501	-2.8949	
-2.15515	-2.6001	-3.28156	-2.84668	
-2.23969	-2.50854	-3.20068	-2.81464	
-2.3172	-2.41455	-3.12958	-2.79724	
-2.37396	-2.31506	-3.07404	-2.74963	
-2.40448	-2.20032	-3.1012	-2.6413	
-2.40509	-2.04468	-3.24188	-2.43835	
-2.39685	-1.84601	-3.44086	-2.24579	
-2.41547	-1.67694	-3.56903	-2.20398	
-2.44019	-1.61407	-3.51135	-2.33185	
-2.37396	-1.73157	-3.26477	-2.56805	
-2.14447	-2.01141	-2.91901	-2.80975	
-1.76971	-2.33307	-2.61536	-2.86224	
-1.37451	-2.59674	-2.44629	-2.79846	
-1.10413	-2.77954	-2.43469	-2.71576	
-1.03973	-2.93793	-2.56165	-2.84088	
-1.17523	-3.06152	-2.74536	-3.06061	
-1.44531	-3.10913	-2.9184	-3.21899	
-1.73157	-3.03467	-3.00873	-3.30505	
-1.94977	-2.8476	-3.00232	-3.35876	
-2.0697	-2.6059	-2.90405	-3.37036	
-2.11182	-2.35229	-2.77527	-3.37128	
-2.16888	-2.13013	-2.71423	-3.31512	
-2.28241	-1.98242	-2.77313	-3.26294	
-2.47986	-1.88446	-2.94006	-3.19977	
-2.68982	-1.82587	-3.11615	-3.14026	
-2.77954	-1.7981	-3.17749	-3.07892	
-2.68036	-1.79657	-3.12317	-2.89124	
-2.43042	-1.80969	-3.02429	-2.64893	
-2.16492	-1.76575	-2.95288	-2.42584	
-1.96777	-1.70929	-2.95013	-2.3114	
-1.84662	-1.72455	-2.99164	-2.38373	
-1.79779	-1.86005	-3.09418	-2.51953	
-1.82953	-2.05658	-3.22693	-2.59857	
-1.9339	-2.17712	-3.36975	-2.57172	
-2.06146	-2.18811	-3.47504	-2.51068	
-2.17072	-2.11914	-3.50098	-2.47253	
-2.23663	-2.05505	-3.42743	-2.49268	
-2.26898	-2.08374	-3.25165	-2.57019	
-2.2757	-2.18964	-3.06549	-2.71423	
-2.24518	-2.2934	-2.94373	-2.84149	
-2.16888	-2.31812	-2.91626	-3.02185	
-2.07245	-2.24396	-2.94556	-3.16711	
-1.96136	-2.13013	-2.88818	-3.17749	
-1.8576	-2.0578	-2.66876	-3.08868	
-1.70624	-2.03094	-2.29126	-2.97577	
-1.53168	-2.04193	-1.9043	-2.93884	
-1.41174	-2.02515	-1.71997	-2.86591	
-1.39618	-2.00562	-1.84906	-2.67609	
-1.45966	-1.99615	-2.20215	-2.39563	
-1.53503	-1.97113	-2.612	-2.20398	
-1.59973	-1.93604	-2.97455	-2.0874	
-1.66199	-1.88324	-3.25623	-2.07977	
-1.69891	-1.81396	-3.4613	-2.0282	
-1.69678	-1.75659	-3.57391	-2.02789	
-1.65802	-1.73615	-3.62518	-2.12921	
-1.64154	-1.79779	-3.66577	-2.3465	
-1.66504	-1.93756	-3.72894	-2.59308	
-1.69739	-2.1283	-3.78967	-2.84973	
-1.7099	-2.30164	-3.79852	-3.06396	
-1.65863	-2.4231	-3.72864	-3.19916	
-1.57898	-2.45331	-3.63373	-3.27515	
-1.52679	-2.44049	-3.53729	-3.27881	
-1.54419	-2.42188	-3.39172	-3.31299	
-1.60858	-2.39075	-3.15155	-3.44238	
-1.68732	-2.35535	-2.85126	-3.66486	
-1.73065	-2.31506	-2.59644	-3.8562	
-1.73431	-2.31659	-2.46185	-3.97644	
-1.69189	-2.34009	-2.47009	-3.97064	
-1.62933	-2.3468	-2.57904	-3.75671	
-1.61591	-2.26501	-2.76703	-3.349	
-1.67786	-2.08893	-3.00781	-2.88269	
-1.79504	-1.86737	-3.25226	-2.66541	
-1.92017	-1.68823	-3.46405	-2.72888	
-2.00928	-1.60614	-3.60962	-2.90558	
-2.04346	-1.62201	-3.69293	-3.09082	
-2.06207	-1.68121	-3.76038	-3.18115	
-2.08008	-1.79596	-3.82294	-3.22327	
-2.12433	-1.95892	-3.88947	-3.25531	
-2.15729	-2.13959	-3.90198	-3.30902	
-2.12769	-2.22717	-3.82538	-3.36945	
-2.04315	-2.15546	-3.68286	-3.4903	
-1.97327	-1.99646	-3.49854	-3.54614	
-1.97327	-1.8396	-3.30872	-3.46649	
-2.03674	-1.72882	-3.12164	-3.28827	
-2.13196	-1.60583	-2.95837	-3.09235	
-2.22076	-1.43219	-2.82501	-3.0069	
-2.28668	-1.26007	-2.75909	-2.948	
-2.32025	-1.19202	-2.854	-2.85767	
-2.27112	-1.24847	-3.08716	-2.73651	
-2.14447	-1.37482	-3.35297	-2.64923	
-1.9812	-1.47858	-3.52264	-2.63336	
-1.85242	-1.52466	-3.62122	-2.75574	
-1.83258	-1.51825	-3.75732	-2.86377	
-1.88049	-1.51215	-3.93433	-2.9538	
-1.90826	-1.57288	-4.0506	-3.05725	
-1.88141	-1.70166	-4.03717	-3.11798	
-1.84052	-1.78589	-3.95172	-3.19275	
-1.83777	-1.75201	-3.86749	-3.29041	
-1.82953	-1.63574	-3.76343	-3.47473	
-1.78772	-1.53442	-3.59863	-3.66974	
-1.71722	-1.54968	-3.37097	-3.74969	
-1.66016	-1.62231	-3.15369	-3.63953	
-1.60858	-1.65955	-3.01605	-3.40302	
-1.54175	-1.61224	-2.99652	-3.18512	
-1.48376	-1.49048	-3.14453	-3.07861	
-1.50116	-1.35864	-3.36487	-2.97699	
-1.604	-1.26831	-3.5321	-2.88391	
-1.69403	-1.26099	-3.54614	-2.84088	
-1.64215	-1.36322	-3.41705	-2.95776	
-1.42548	-1.50604	-3.2901	-3.11768	
-1.16577	-1.56219	-3.30627	-3.16498	
-1.03821	-1.55884	-3.48999	-3.06305	
-1.09802	-1.58112	-3.7738	-2.85645	
-1.25946	-1.74683	-3.99048	-2.67212	
-1.42242	-1.99738	-4.04724	-2.5589	
-1.56158	-2.15088	-3.97034	-2.52258	
-1.66351	-2.13989	-3.84399	-2.61688	
-1.71692	-2.03888	-3.73657	-2.80029	
-1.71661	-1.92688	-3.64166	-2.80853	
-1.67999	-1.84113	-3.53546	-2.56165	
-1.63391	-1.72729	-3.39996	-2.18323	
-1.57684	-1.60278	-3.25012	-1.98364	
-1.49506	-1.50726	-3.09753	-2.01813	
-1.41266	-1.47705	-3.02155	-2.16034	
-1.35803	-1.52893	-3.12195	-2.28607	
-1.36566	-1.57684	-3.37585	-2.32208	
-1.46118	-1.54083	-3.68744	-2.33643	
-1.63727	-1.40381	-3.91785	-2.24854	
-1.84479	-1.15082	-4.02313	-2.08893	
-2.01996	-0.86853	-4.05121	-1.86737	
-2.10663	-0.629578	-4.00452	-1.68274	
-2.13745	-0.516052	-3.89709	-1.5921	
-2.14355	-0.543518	-3.73016	-1.53076	
-2.13928	-0.65033	-3.54401	-1.52496	
-2.11609	-0.765381	-3.41644	-1.61407	
-2.08191	-0.84137	-3.40881	-1.7926	
-2.07214	-0.849304	-3.52203	-1.96564	
-2.09045	-0.837097	-3.68927	-2.02942	
-2.11151	-0.858765	-3.80798	-1.97998	
-2.08832	-0.945129	-3.80463	-1.86523	
-2.04315	-1.03119	-3.70178	-1.85272	
-2.0285	-1.03241	-3.57971	-2.0517	
-2.07672	-0.922852	-3.53638	-2.2879	
-2.18292	-0.751343	-3.62	-2.36176	
-2.3114	-0.602722	-3.7793	-2.23999	
-2.42432	-0.50415	-3.91449	-1.99432	
-2.4649	-0.52124	-3.96423	-1.73981	
-2.45514	-0.638428	-3.95691	-1.55426	
-2.44629	-0.844421	-3.94745	-1.4212	
-2.4704	-1.00677	-3.91998	-1.39618	
-2.48718	-1.05743	-3.87421	-1.46851	
-2.46094	-0.955505	-3.82355	-1.5564	
-2.4173	-0.759277	-3.83881	-1.5918	
-2.40875	-0.553284	-3.91541	-1.51703	
-2.40082	-0.414734	-3.96576	-1.40106	
-2.32513	-0.368042	-3.91876	-1.31714	
-2.18567	-0.400085	-3.78174	-1.29272	
-2.0874	-0.462646	-3.65753	-1.37299	
-2.12219	-0.509949	-3.62244	-1.45599	
-2.26044	-0.475464	-3.6496	-1.42822	
-2.41089	-0.367737	-3.70819	-1.36108	
-2.49786	-0.254822	-3.77106	-1.39984	
-2.50488	-0.178223	-3.79913	-1.44165	
-2.46033	-0.153503	-3.80524	-1.37085	
-2.40417	-0.149231	-3.81683	-1.13007	
-2.32513	-0.180664	-3.83331	-0.912781	
-2.27509	-0.223083	-3.86505	-0.924377	
-2.25952	-0.250854	-3.89374	-1.1615	
-2.29004	-0.278015	-3.96729	-1.39069	
-2.31598	-0.359802	-4.06433	-1.51245	
-2.29828	-0.495605	-4.06647	-1.4978	
-2.21619	-0.658569	-3.90472	-1.48834	
-2.07886	-0.761414	-3.64838	-1.51672	
-1.91498	-0.784607	-3.46008	-1.56769	
-1.76392	-0.760498	-3.45947	-1.64276	
-1.69128	-0.7724	-3.58765	-1.74591	
-1.70105	-0.822754	-3.71033	-1.79688	
-1.72211	-0.904236	-3.77289	-1.75079	
-1.69159	-0.969238	-3.79272	-1.69403	
-1.60767	-0.99762	-3.80585	-1.70258	
-1.55334	-0.982361	-3.81012	-1.66779	
-1.5625	-0.9198	-3.7912	-1.61133	
-1.62048	-0.779114	-3.78693	-1.37299	
-1.66168	-0.645752	-3.79944	-1.21674	
-1.66199	-0.600586	-3.79852	-1.2796	
-1.651	-0.720825	-3.71887	-1.48682	
-1.66473	-0.967712	-3.57056	-1.7218	
-1.70074	-1.23383	-3.42957	-1.90979	
-1.71204	-1.39069	-3.349	-1.9931	
-1.69159	-1.39801	-3.33252	-1.92657	
-1.64368	-1.28632	-3.34869	-1.73035	
-1.61102	-1.16089	-3.3551	-1.51489	
-1.58508	-1.08795	-3.33649	-1.42029	
-1.56006	-1.0788	-3.29712	-1.53534	
-1.55121	-1.09528	-3.26843	-1.79779	
-1.60339	-1.026	-3.284	-1.95862	
-1.68945	-0.903625	-3.33008	-1.91071	
-1.74072	-0.823669	-3.35052	-1.71112	
-1.73492	-0.844116	-3.33252	-1.57928	
-1.6864	-0.898743	-3.25043	-1.53351	
-1.64032	-0.867615	-3.11615	-1.54938	
-1.58478	-0.735168	-2.94128	-1.59119	
-1.51276	-0.626526	-2.79175	-1.66992	
-1.4032	-0.643311	-2.71118	-1.74988	
-1.29822	-0.762329	-2.69531	-1.81274	
-1.25183	-0.887451	-2.71088	-1.88202	
-1.28326	-0.941772	-2.73285	-1.99005	
-1.38641	-0.980835	-2.79541	-2.12097	
-1.47217	-1.03058	-2.91351	-2.19177	
-1.48773	-1.08856	-3.03009	-2.13379	
-1.43677	-1.09436	-3.12927	-2.03308	
-1.36139	-1.07025	-3.20923	-2.01172	
-1.33179	-1.0495	-3.28522	-2.06512	
-1.36322	-1.00525	-3.34869	-2.06909	
-1.41785	-0.980225	-3.37799	-2.01752	
-1.45081	-0.969849	-3.34839	-1.97357	
-1.42609	-1.00067	-3.25043	-1.98242	
-1.37939	-1.04919	-3.12469	-2.05811	
-1.33423	-1.0675	-3.02765	-2.12769	
-1.30524	-1.06873	-3.01788	-2.19696	
-1.29181	-1.06903	-3.0542	-2.36053	
-1.27533	-1.09955	-3.0426	-2.55737	
-1.24237	-1.12305	-2.95959	-2.76154	
-1.2146	-1.14105	-2.86102	-2.86346	
-1.21307	-1.11847	-2.82135	-2.9071	
-1.23779	-1.10718	-2.85889	-2.92572	
-1.27045	-1.1615	-2.94891	-2.88055	
-1.29028	-1.27106	-3.04962	-2.88513	
-1.27899	-1.36749	-3.10913	-2.92786	
-1.25946	-1.38611	-3.1192	-3.02795	
-1.24146	-1.36475	-3.09814	-3.16376	
-1.23596	-1.34705	-3.06427	-3.2019	
-1.2323	-1.37665	-3.03436	-3.16254	
-1.19934	-1.38306	-3.00171	-3.12317	
-1.13525	-1.36383	-2.97272	-3.11707	
-1.05103	-1.34369	-3.00201	-3.14453	
-0.982971	-1.35803	-3.10425	-3.12592	
-0.971069	-1.36932	-3.25531	-3.06061	
-1.05865	-1.33789	-3.40515	-2.99774	
-1.21124	-1.24664	-3.47473	-2.81921	
-1.33514	-1.17584	-3.49335	-2.61627	
-1.36444	-1.16791	-3.4967	-2.51068	
-1.29211	-1.20392	-3.46405	-2.58484	
-1.20209	-1.24237	-3.39355	-2.68982	
-1.15448	-1.25793	-3.33282	-2.67334	
-1.16333	-1.28204	-3.33496	-2.55981	
-1.17981	-1.33057	-3.40698	-2.47681	
-1.17767	-1.44104	-3.50952	-2.52777	
-1.17981	-1.59088	-3.60657	-2.69714	
-1.22894	-1.70044	-3.69568	-2.82623	
-1.32507	-1.73584	-3.75824	-2.92328	
-1.40686	-1.66168	-3.75977	-2.92999	
-1.4328	-1.53107	-3.69263	-2.7652	
-1.40076	-1.42731	-3.54767	-2.49878	
-1.36169	-1.3916	-3.36487	-2.24396	
-1.32721	-1.4682	-3.24097	-2.15851	
-1.30066	-1.59515	-3.2431	-2.26044	
-1.27289	-1.72058	-3.33893	-2.46857	
-1.26251	-1.83594	-3.45123	-2.65533	
-1.28845	-1.93726	-3.47931	-2.74719	
-1.30219	-2.03583	-3.41095	-2.76794	
-1.28235	-2.117	-3.29193	-2.72156	
-1.23077	-2.11792	-3.1778	-2.67151	
-1.17828	-2.03552	-3.13171	-2.60956	
-1.11084	-1.92047	-3.19	-2.60681	
-1.02264	-1.87408	-3.31146	-2.742	
-0.943909	-1.87775	-3.40485	-2.85431	
-0.921631	-1.88721	-3.3963	-2.85767	
-0.995789	-1.85425	-3.33496	-2.73773	
-1.12061	-1.73981	-3.27606	-2.56622	
-1.23993	-1.58844	-3.29681	-2.57568	
-1.29974	-1.42883	-3.38135	-2.70264	
-1.29242	-1.29364	-3.49426	-2.86011	
-1.24359	-1.20178	-3.57147	-2.96631	
-1.17584	-1.17401	-3.59039	-3.03619	
-1.09924	-1.21277	-3.5675	-3.11432	
-1.02173	-1.28601	-3.52417	-3.19061	
-0.968323	-1.33118	-3.50342	-3.29193	
-0.938721	-1.30615	-3.49823	-3.34473	
-0.92865	-1.25122	-3.50647	-3.33099	
-0.914612	-1.26495	-3.53912	-3.28308	
-0.9021	-1.39313	-3.59589	-3.2608	
-0.882874	-1.63055	-3.6557	-3.25043	
-0.845642	-1.90002	-3.68408	-3.29102	
-0.787964	-2.07703	-3.67737	-3.36884	
-0.735168	-2.15027	-3.63037	-3.4903	
-0.703735	-2.12097	-3.57819	-3.49396	
-0.716858	-2.03003	-3.55591	-3.28552	
-0.760498	-1.9397	-3.58429	-2.99652	
-0.827637	-1.87469	-3.60626	-2.72247	
-0.925598	-1.87653	-3.58154	-2.6355	
-1.04706	-1.94214	-3.508	-2.67059	
-1.19598	-2.02454	-3.41705	-2.70691	
-1.32751	-2.08893	-3.33008	-2.69775	
-1.40717	-2.14783	-3.25378	-2.69958	
-1.42792	-2.19604	-3.22815	-2.79022	
-1.42578	-2.21405	-3.24768	-2.86407	
-1.41876	-2.22839	-3.29041	-2.87933	
-1.41479	-2.24274	-3.3432	-2.83295	
-1.41357	-2.2818	-3.39813	-2.87537	
-1.40137	-2.34192	-3.47198	-3.00446	
-1.37695	-2.38708	-3.5318	-3.04352	
-1.32721	-2.40021	-3.53821	-2.85706	
-1.28571	-2.34192	-3.46954	-2.52075	
-1.29608	-2.27264	-3.31116	-2.27997	
-1.36139	-2.24457	-3.1012	-2.22046	
-1.47614	-2.25586	-2.9245	-2.27203	
-1.60767	-2.26868	-2.80731	-2.28729	
-1.7038	-2.23419	-2.73041	-2.16766	
-1.74164	-2.15057	-2.65778	-1.95221	
-1.73615	-2.11731	-2.59521	-1.79596	
-1.77643	-2.20062	-2.60529	-1.91986	
-1.85516	-2.38129	-2.65533	-2.20734	
-1.92535	-2.55096	-2.64587	-2.41302	
-1.93298	-2.65106	-2.53204	-2.45483	
-1.91833	-2.70996	-2.37152	-2.3645	
-1.91528	-2.77283	-2.31018	-2.28668	
-1.9101	-2.84851	-2.39319	-2.27875	
-1.84998	-2.92542	-2.51526	-2.29614	
-1.71661	-2.9834	-2.54608	-2.3111	
-1.53564	-3.07098	-2.48047	-2.30225	
-1.36841	-3.21716	-2.42004	-2.31598	
-1.25824	-3.42194	-2.43103	-2.31689	
-1.26221	-3.63678	-2.53937	-2.30591	
-1.37573	-3.76007	-2.69531	-2.30255	
-1.53687	-3.75458	-2.84943	-2.34253	
-1.69312	-3.64136	-2.94403	-2.34161	
-1.8338	-3.49304	-3.02338	-2.32819	
-1.92596	-3.3847	-3.10425	-2.26654	
-1.9519	-3.34259	-3.18176	-2.26563	
-1.9043	-3.32886	-3.16345	-2.29645	
-1.86005	-3.3194	-3.04779	-2.29919	
-1.89423	-3.302	-2.92328	-2.23602	
-2.01508	-3.3429	-2.86682	-2.17072	
-2.15759	-3.46619	-2.87781	-2.15393	
-2.28119	-3.60596	-2.91718	-2.17987	
-2.36145	-3.62793	-2.94952	-2.1582	
-2.36084	-3.51776	-2.94861	-2.05475	
-2.26166	-3.41705	-2.89886	-1.99097	
-2.06421	-3.40637	-2.81799	-1.9812	
-1.80023	-3.49518	-2.73102	-2.04285	
-1.56067	-3.6145	-2.66388	-2.05322	
-1.38794	-3.73322	-2.63519	-2.07306	
-1.32111	-3.81195	-2.65869	-2.11395	
-1.35468	-3.85651	-2.7356	-2.23938	
-1.48956	-3.81073	-2.83875	-2.28394	
-1.67542	-3.70117	-2.88818	-2.164	
-1.84235	-3.54156	-2.85217	-2.05902	
-1.93115	-3.3371	-2.75757	-1.92841	
-1.95831	-3.14331	-2.64771	-1.81915	
-1.94885	-3.04688	-2.55524	-1.69067	
-1.93481	-3.1192	-2.49695	-1.67725	
-1.87958	-3.32642	-2.47437	-1.76819	
-1.81946	-3.57178	-2.49573	-1.92963	
-1.78802	-3.69568	-2.55768	-2.11548	
-1.78711	-3.66699	-2.59186	-2.32574	
-1.78375	-3.50647	-2.5705	-2.43164	
-1.74164	-3.31848	-2.51373	-2.43958	
-1.66504	-3.19427	-2.46857	-2.46429	
-1.56891	-3.2251	-2.45361	-2.65961	
-1.4386	-3.40942	-2.43683	-2.94159	
-1.31439	-3.71033	-2.42676	-3.14056	
-1.2561	-3.97583	-2.44873	-3.16101	
-1.31012	-4.1452	-2.52594	-3.14697	
-1.45233	-4.16168	-2.65717	-3.18848	
-1.58478	-4.10645	-2.77039	-3.27057	
-1.68915	-4.03931	-2.8418	-3.32184	
-1.79688	-3.97858	-2.85828	-3.26508	
-1.95129	-3.89801	-2.82471	-3.15094	
-2.11273	-3.76617	-2.72125	-2.97455	
-2.18903	-3.58521	-2.59155	-2.87079	
-2.18414	-3.37219	-2.5177	-2.86713	
-2.1637	-3.17566	-2.57721	-2.89246	
-2.17255	-3.01788	-2.71118	-2.78259	
-2.15027	-2.95502	-2.84607	-2.57751	
-2.04865	-2.99561	-2.91107	-2.39014	
-1.922	-3.1311	-2.9303	-2.33337	
-1.83167	-3.34808	-2.92542	-2.49512	
-1.77185	-3.58398	-2.87994	-2.81128	
-1.698	-3.73474	-2.80029	-3.14148	
-1.61591	-3.78876	-2.71606	-3.46283	
-1.56067	-3.81378	-2.69196	-3.63617	
-1.55334	-3.83606	-2.73224	-3.62	
-1.6098	-3.74969	-2.84241	-3.44971	
-1.72699	-3.48145	-2.9834	-3.20618	
-1.89575	-3.10028	-3.10974	-3.02338	
-2.08344	-2.76642	-3.17505	-2.82227	
-2.27905	-2.61292	-3.15063	-2.67273	
-2.43134	-2.57477	-3.06732	-2.60773	
-2.4881	-2.59308	-3.01483	-2.6825	
-2.42432	-2.6001	-3.01941	-2.85767	
-2.30774	-2.56622	-3.05878	-2.99316	
-2.20001	-2.53571	-3.07678	-3.125	
-2.10907	-2.5351	-3.02582	-3.20068	
-2.00317	-2.65839	-2.91016	-3.47809	
-1.89087	-2.883	-2.77161	-3.63312	
-1.80939	-3.14392	-2.62634	-3.67096	
-1.7276	-3.38593	-2.48718	-3.61084	
-1.6452	-3.59863	-2.38647	-3.61572	
-1.55457	-3.77319	-2.32178	-3.71735	
-1.47888	-3.89801	-2.32971	-3.78235	
-1.46271	-3.92426	-2.41577	-3.73322	
-1.50543	-3.8324	-2.53357	-3.55682	
-1.62689	-3.67004	-2.66205	-3.38104	
-1.78711	-3.50525	-2.75055	-3.21838	
-1.9165	-3.39142	-2.8186	-3.15277	
-1.98364	-3.34351	-2.87567	-3.11951	
-2.03918	-3.31238	-2.96295	-3.16284	
-2.1283	-3.26538	-3.0542	-3.15643	
-2.24335	-3.17322	-3.08197	-3.0899	
-2.30896	-3.06396	-3.04535	-2.98401	
-2.29309	-3.03009	-3.00964	-2.98126	
-2.2525	-3.09631	-3.06183	-3.17688	
-2.24091	-3.22876	-3.1781	-3.35114	
-2.27173	-3.37311	-3.28827	-3.39661	
-2.33887	-3.53363	-3.34259	-3.34686	
-2.41486	-3.70209	-3.35052	-3.41248	
-2.44843	-3.83698	-3.29376	-3.67523	
-2.37518	-3.84613	-3.1543	-3.95721	
-2.23083	-3.71338	-2.98981	-4.02679	
-2.07855	-3.4967	-2.88757	-3.86353	
-1.97937	-3.30688	-2.91443	-3.62946	
-1.88873	-3.22418	-3.0484	-3.46527	
-1.77368	-3.28369	-3.21136	-3.37799	
-1.68243	-3.43964	-3.3371	-3.30688	
-1.68915	-3.59192	-3.38104	-3.18329	
-1.79993	-3.66516	-3.37006	-3.04718	
-1.94733	-3.6319	-3.35205	-2.98737	
-2.09595	-3.51563	-3.35358	-3.07434	
-2.21283	-3.32428	-3.32184	-3.15887	
-2.30682	-3.12531	-3.20953	-3.25409	
-2.3877	-3.00018	-3.02948	-3.3783	
-2.46765	-3.03864	-2.89886	-3.56445	
-2.5473	-3.22327	-2.89429	-3.77289	
-2.59644	-3.48145	-2.98431	-3.8739	
-2.57904	-3.71613	-3.07343	-3.86261	
-2.50458	-3.85742	-3.0722	-3.80371	
-2.40356	-3.89648	-2.98187	-3.68988	
-2.30804	-3.8678	-2.86041	-3.5788	
-2.21985	-3.79028	-2.76489	-3.45642	
-2.13531	-3.70026	-2.74872	-3.37952	
-2.06451	-3.63495	-2.85187	-3.38104	
-2.01019	-3.60901	-3.06183	-3.32947	
-1.93512	-3.64075	-3.29742	-3.22601	
-1.84326	-3.68988	-3.47595	-3.11707	
-1.76392	-3.70331	-3.55377	-3.03101	
-1.70166	-3.69537	-3.5437	-2.96234	
-1.65375	-3.65845	-3.48511	-2.96814	
-1.63696	-3.59283	-3.38776	-3.1543	
-1.70593	-3.5379	-3.26447	-3.396	
-1.86096	-3.49518	-3.15613	-3.52783	
-2.03796	-3.50861	-3.13293	-3.47656	
-2.16553	-3.53119	-3.16101	-3.27209	
-2.25037	-3.50189	-3.13782	-3.12012	
-2.31628	-3.4137	-3.03009	-3.0838	
-2.35077	-3.36029	-2.88452	-3.10364	
-2.35931	-3.4256	-2.82898	-3.1366	
-2.33734	-3.58368	-2.8772	-3.03558	
-2.29736	-3.73627	-2.98492	-2.83661	
-2.22046	-3.80951	-3.09784	-2.58301	
-2.09473	-3.83118	-3.20435	-2.41974	
-1.95984	-3.90228	-3.29773	-2.48688	
-1.85089	-3.974	-3.37128	-2.58911	
-1.76453	-4.0271	-3.42163	-2.62695	
-1.69708	-4.02252	-3.45001	-2.57813	
-1.67511	-3.98438	-3.42743	-2.5473	
-1.72791	-3.96118	-3.32031	-2.56409	
-1.85394	-3.98346	-3.18481	-2.64282	
-1.99097	-4.01917	-3.11951	-2.76215	
-2.10114	-3.98438	-3.14087	-2.82532	
-2.17499	-3.84399	-3.1839	-2.83203	
-2.23999	-3.61359	-3.16254	-2.71057	
-2.31995	-3.38593	-3.05725	-2.56897	
-2.42371	-3.2489	-2.92938	-2.50671	
-2.52899	-3.2309	-2.83295	-2.47314	
-2.59857	-3.31757	-2.81189	-2.41974	
-2.63153	-3.44086	-2.86743	-2.29919	
-2.63458	-3.51746	-2.97913	-2.19238	
-2.62268	-3.53851	-3.08319	-2.23267	
-2.58148	-3.52386	-3.13263	-2.37122	
-2.48993	-3.51532	-3.13507	-2.43744	
-2.34039	-3.573	-3.09814	-2.43164	
-2.1521	-3.69751	-3.01605	-2.3703	
-1.99524	-3.77808	-2.87262	-2.276	
-1.93665	-3.70422	-2.69165	-2.23602	
-2.02209	-3.47656	-2.52655	-2.31049	
-2.19269	-3.21075	-2.41699	-2.36053	
-2.34314	-3.0481	-2.38922	-2.34528	
-2.40509	-3.00293	-2.38861	-2.2345	
-2.40387	-2.9718	-2.34283	-2.17987	
-2.4173	-2.95288	-2.21924	-2.32117	
-2.44141	-2.97211	-2.10449	-2.49756	
-2.40814	-3.08899	-2.08588	-2.51831	
-2.30103	-3.24005	-2.17102	-2.34741	
-2.2049	-3.32947	-2.29156	-2.15607	
-2.22565	-3.33832	-2.40112	-2.07886	
-2.33002	-3.35938	-2.48596	-2.09686	
-2.38403	-3.43079	-2.54425	-2.22046	
-2.31232	-3.51685	-2.56226	-2.40601	
-2.13593	-3.50433	-2.53876	-2.58453	
-1.92657	-3.39966	-2.46399	-2.69867	
-1.71356	-3.3194	-2.32635	-2.7594	
-1.52588	-3.36365	-2.1701	-2.77283	
-1.42914	-3.50342	-2.08221	-2.85828	
-1.474	-3.60229	-2.13623	-3.04108	
-1.62567	-3.55835	-2.2934	-3.25623	
-1.80786	-3.3429	-2.43683	-3.27942	
-1.94855	-3.01971	-2.48108	-3.12866	
-2.00439	-2.70691	-2.42218	-2.82959	
-1.99432	-2.49603	-2.36694	-2.50214	
-1.96381	-2.45514	-2.42767	-2.20642	
-1.99463	-2.55127	-2.66296	-1.97571	
-2.11975	-2.68372	-3.02155	-1.89056	
-2.26654	-2.7832	-3.38226	-1.96991	
-2.35809	-2.82257	-3.62152	-2.16217	
-2.35046	-2.78992	-3.69843	-2.37335	
-2.26013	-2.70752	-3.63647	-2.40967	
-2.13196	-2.61139	-3.50281	-2.28302	
-1.98853	-2.55005	-3.34778	-2.12738	
-1.86798	-2.54578	-3.20953	-2.12891	
-1.77185	-2.64648	-3.12592	-2.34528	
-1.68457	-2.81128	-3.11371	-2.64343	
-1.6272	-3.00568	-3.14911	-2.89673	
-1.65802	-3.1073	-3.16162	-3.00476	
-1.82343	-3.09631	-3.13202	-3.04413	
-2.06451	-2.99194	-3.11401	-3.04779	
-2.25403	-2.83569	-3.14789	-3.06763	
-2.30988	-2.69196	-3.22968	-3.03864	
-2.28149	-2.57507	-3.31024	-2.90802	
-2.25189	-2.44263	-3.36395	-2.63306	
-2.25037	-2.28882	-3.41675	-2.36877	
-2.26624	-2.11823	-3.48328	-2.2168	
-2.2702	-1.9632	-3.55804	-2.11517	
-2.23816	-1.88873	-3.62427	-2.01599	
-2.16248	-1.87958	-3.66699	-1.95282	
-2.04681	-1.9339	-3.68866	-1.99615	
-1.90735	-2.05841	-3.67157	-2.08771	
-1.74561	-2.2226	-3.63037	-2.18506	
-1.55945	-2.44354	-3.55804	-2.34467	
-1.38611	-2.64404	-3.42743	-2.47498	
-1.27716	-2.75543	-3.20526	-2.67273	
-1.27472	-2.75024	-2.90619	-2.87079	
-1.32172	-2.65869	-2.61322	-3.0603	
-1.35651	-2.54852	-2.44904	-3.21655	
-1.37329	-2.47681	-2.48138	-3.33282	
-1.40625	-2.44354	-2.68188	-3.39081	
-1.4798	-2.39655	-2.9361	-3.33374	
-1.56067	-2.31262	-3.14209	-3.19458	
-1.60553	-2.20734	-3.28339	-3.0835	
-1.5918	-2.11426	-3.37128	-2.92877	
-1.51184	-2.03583	-3.42407	-2.70569	
-1.3678	-2.01263	-3.47931	-2.42737	
-1.2207	-2.0871	-3.54492	-2.25342	
-1.1554	-2.21741	-3.64197	-2.28607	
-1.17249	-2.30774	-3.72467	-2.435	
-1.21338	-2.31689	-3.72894	-2.57355	
-1.20667	-2.31293	-3.61694	-2.69073	
-1.13953	-2.39899	-3.42682	-2.87659	
-1.02814	-2.59766	-3.24921	-3.09448	
-0.885315	-2.81525	-3.1601	-3.23822	
-0.765686	-2.96326	-3.1723	-3.20648	
-0.728149	-3.00873	-3.24921	-3.02551	
-0.769348	-2.9248	-3.33069	-2.86438	
-0.852356	-2.76825	-3.37769	-2.78656	
-0.946655	-2.54944	-3.3783	-2.83264	
-1.05835	-2.33154	-3.35907	-2.98737	
-1.16974	-2.18231	-3.34015	-3.14819	
-1.19904	-2.17896	-3.31177	-3.26141	
-1.10687	-2.31537	-3.30597	-3.37097	
-0.947571	-2.45819	-3.32916	-3.39783	
-0.814514	-2.50641	-3.38287	-3.27332	
-0.757141	-2.47192	-3.42224	-3.00598	
-0.78186	-2.39868	-3.38867	-2.68219	
-0.837708	-2.3114	-3.25806	-2.49908	
-0.878296	-2.23602	-3.10303	-2.5769	
-0.880432	-2.19635	-2.99194	-2.82684	
-0.849304	-2.2934	-2.98584	-3.1015	
-0.837708	-2.53845	-3.08472	-3.35999	
-0.881348	-2.87628	-3.19305	-3.67432	
-1.00769	-3.19244	-3.22205	-3.98987	
-1.17371	-3.30353	-3.17688	-4.20776	
-1.34338	-3.17322	-3.13446	-4.17816	
-1.46759	-2.87079	-3.14331	-3.89557	
-1.51459	-2.53357	-3.15186	-3.57117	
-1.50116	-2.26624	-3.10516	-3.40057	
-1.4325	-2.08374	-3.02673	-3.3847	
-1.3446	-1.98151	-2.98279	-3.40027	
-1.25824	-1.95923	-2.96722	-3.39508	
-1.19354	-2.00439	-2.90894	-3.43658	
-1.16028	-2.06573	-2.78503	-3.57117	
-1.16364	-2.05994	-2.6947	-3.72528	
-1.20087	-2.01324	-2.73376	-3.78418	
-1.25183	-1.99341	-2.92267	-3.80432	
-1.2912	-2.04895	-3.13782	-3.82721	
-1.31714	-2.17255	-3.26996	-3.92303	
-1.31042	-2.29248	-3.27911	-3.96057	
-1.26892	-2.39136	-3.18787	-3.91266	
-1.20667	-2.45575	-3.06427	-3.89832	
-1.17157	-2.45575	-3.00018	-4.05182	
-1.18164	-2.32758	-3.00781	-4.09271	
-1.21368	-2.09412	-3.04565	-3.93005	
-1.24084	-1.79474	-3.05969	-3.6496	
-1.24512	-1.53168	-3.05206	-3.57056	
-1.22437	-1.36597	-3.05511	-3.67096	
-1.1673	-1.33514	-3.03925	-3.8028	
-1.08063	-1.4447	-2.95929	-3.81744	
-1.0022	-1.59576	-2.82379	-3.77075	
-0.953979	-1.71021	-2.74048	-3.7085	
-0.964966	-1.79016	-2.80334	-3.64105	
-1.01563	-1.84692	-2.97943	-3.51563	
-1.08398	-1.94305	-3.18207	-3.44147	
-1.13922	-2.07123	-3.30841	-3.47382	
-1.17523	-2.18842	-3.34442	-3.54309	
-1.16364	-2.22015	-3.30322	-3.47107	
-1.0968	-2.25586	-3.22235	-3.30811	
-0.988159	-2.34833	-3.13995	-3.14636	
-0.904541	-2.54669	-3.07098	-3.12347	
-0.892944	-2.76031	-3.04077	-3.18176	
-0.939941	-2.84546	-3.03375	-3.24066	
-0.988464	-2.78259	-3.05481	-3.19427	
-0.994873	-2.66998	-3.09418	-3.07892	
-0.970154	-2.63428	-3.11768	-2.98096	
-0.94574	-2.71912	-3.0722	-2.90344	
-0.956421	-2.81921	-2.96112	-2.88818	
-1.01288	-2.81799	-2.88177	-2.89215	
-1.10626	-2.72705	-2.92053	-2.94128	
-1.21307	-2.6355	-3.05542	-2.9599	
-1.32141	-2.57751	-3.19336	-2.93335	
-1.44196	-2.50824	-3.25409	-2.87354	
-1.58356	-2.4411	-3.21777	-2.86682	
-1.72607	-2.39166	-3.10699	-2.76886	
-1.8515	-2.40723	-2.995	-2.66083	
-1.91315	-2.43774	-2.92328	-2.44324	
-1.90369	-2.45575	-2.87018	-2.29462	
-1.83228	-2.48108	-2.76855	-2.38434	
-1.72028	-2.50793	-2.60956	-2.62146	
-1.58203	-2.50488	-2.47986	-2.87842	
-1.42395	-2.45544	-2.41791	-2.95837	
-1.26862	-2.42859	-2.40326	-2.88147	
-1.14899	-2.48383	-2.37091	-2.71851	
-1.10077	-2.55676	-2.30713	-2.62268	
-1.11084	-2.5708	-2.27936	-2.55951	
-1.19751	-2.53235	-2.38037	-2.54364	
-1.35651	-2.5177	-2.60712	-2.53082	
-1.54846	-2.54761	-2.86041	-2.57111	
-1.70258	-2.55829	-3.00507	-2.63092	
-1.75385	-2.5235	-2.99377	-2.64282	
-1.71326	-2.49664	-2.90131	-2.61688	
-1.62659	-2.54578	-2.79114	-2.56775	
-1.5686	-2.6532	-2.67578	-2.46643	
-1.58691	-2.79907	-2.55676	-2.36664	
-1.66504	-2.96082	-2.47314	-2.35809	
-1.73798	-3.07281	-2.43805	-2.47498	
-1.74774	-3.07861	-2.41119	-2.75452	
-1.67511	-2.95349	-2.34375	-2.97272	
-1.52985	-2.73041	-2.24182	-3.08777	
-1.37085	-2.47345	-2.1405	-3.05115	
-1.28815	-2.28516	-2.11365	-3.00415	
-1.33545	-2.21283	-2.21954	-3.03802	
-1.4978	-2.27844	-2.41821	-3.09662	
-1.68976	-2.43011	-2.64832	-3.13965	
-1.85516	-2.61841	-2.82898	-3.18146	
-1.99371	-2.7359	-2.94922	-3.17505	
-2.09961	-2.73285	-3.02887	-3.13141	
-2.17133	-2.63245	-3.10059	-3.15063	
-2.19299	-2.48962	-3.14728	-3.12836	
-2.17316	-2.35992	-3.19061	-3.07343	
-2.11975	-2.28912	-3.23486	-2.94098	
-2.04651	-2.33185	-3.2785	-2.82196	
-1.99554	-2.48535	-3.30872	-2.82166	
-1.98608	-2.62665	-3.31329	-2.92389	
-1.9696	-2.66388	-3.28217	-3.04352	
-1.87744	-2.62512	-3.20129	-3.17902	
-1.66016	-2.55585	-3.05511	-3.21716	
-1.40137	-2.47345	-2.91626	-3.07526	
-1.21735	-2.35443	-2.88269	-2.8479	
-1.16486	-2.20398	-2.97211	-2.59155	
-1.22467	-2.08466	-3.09723	-2.50641	
-1.33667	-2.04895	-3.14911	-2.71423	
-1.47614	-2.08557	-3.11737	-2.90802	
-1.6153	-2.14478	-3.07098	-2.91779	
-1.75568	-2.1991	-3.08044	-2.75391	
-1.86554	-2.22931	-3.1369	-2.64343	
-1.92352	-2.26746	-3.20526	-2.66571	
-1.91681	-2.32666	-3.24677	-2.76398	
-1.85181	-2.37457	-3.24677	-2.8186	
-1.75781	-2.37671	-3.18481	-2.81403	
-1.66504	-2.33734	-3.09418	-2.91473	
-1.62231	-2.25586	-3.00354	-3.05542	
-1.61285	-2.19879	-2.93823	-3.19519	
-1.57532	-2.17438	-2.89673	-3.26752	
-1.45233	-2.22015	-2.8717	-3.35083	
-1.24725	-2.30713	-2.84241	-3.40912	
-1.06201	-2.37885	-2.81464	-3.42712	
-0.984497	-2.37488	-2.80182	-3.32733	
-1.04004	-2.31812	-2.84241	-3.19275	
-1.17706	-2.24304	-2.92694	-2.98096	
-1.30981	-2.22656	-3.01727	-2.77191	
-1.3739	-2.28729	-3.10211	-2.63306	
-1.36505	-2.36694	-3.18695	-2.57874	
-1.31348	-2.38922	-3.25409	-2.62054	
-1.27808	-2.33215	-3.27362	-2.71637	
-1.30493	-2.23602	-3.21594	-2.69623	
-1.38916	-2.18048	-3.12561	-2.64008	
-1.49414	-2.2052	-3.06244	-2.63824	
-1.55975	-2.27417	-3.06335	-2.71515	
-1.55731	-2.35168	-3.05817	-2.79419	
-1.48895	-2.38861	-2.98737	-2.84119	
-1.36536	-2.42096	-2.83813	-2.93884	
-1.21826	-2.46887	-2.68372	-3.11462	
-1.09161	-2.60162	-2.60223	-3.29895	
-1.03821	-2.7771	-2.62268	-3.35541	
-1.07361	-2.93243	-2.69897	-3.26172	
-1.16669	-2.97791	-2.7536	-3.07037	
-1.26129	-2.9129	-2.73407	-2.83905	
-1.34705	-2.82867	-2.64465	-2.66541	
-1.40137	-2.74628	-2.5061	-2.62207	
-1.40594	-2.65625	-2.37854	-2.74658	
-1.36536	-2.58026	-2.28668	-2.94312	
-1.33911	-2.50366	-2.2403	-3.01086	
-1.36749	-2.41241	-2.21924	-2.96783	
-1.42578	-2.27783	-2.229	-2.9303	
-1.45264	-2.14386	-2.28363	-2.97852	
-1.42273	-2.10999	-2.37213	-3.07709	
-1.37512	-2.18475	-2.42371	-3.15887	
-1.32172	-2.30103	-2.40021	-3.20221	
-1.2442	-2.37701	-2.36389	-3.23578	
-1.17004	-2.41669	-2.43011	-3.31421	
-1.13464	-2.47925	-2.62146	-3.47198	
-1.17249	-2.56561	-2.85034	-3.51349	
-1.28174	-2.64343	-3.01971	-3.44025	
-1.41418	-2.69928	-3.10944	-3.26599	
-1.53168	-2.677	-3.14026	-3.06793	
-1.61377	-2.53235	-3.125	-2.85736	
-1.65833	-2.27112	-3.09296	-2.71393	
-1.67145	-1.96289	-3.07434	-2.70111	
-1.66107	-1.70959	-3.06122	-2.82532	
-1.60706	-1.55853	-3.02826	-2.99927	
-1.54266	-1.48804	-2.98615	-3.14575	
-1.49414	-1.46637	-2.97791	-3.1781	
-1.47308	-1.47858	-3.00964	-3.08563	
-1.43158	-1.51581	-2.9837	-2.91016	
-1.33911	-1.54968	-2.84302	-2.82654	
-1.21643	-1.53717	-2.64557	-2.91626	
-1.14746	-1.52496	-2.53632	-3.20465	
-1.19263	-1.56189	-2.56897	-3.60077	
-1.29089	-1.7041	-2.66541	-3.84521	
-1.34857	-1.90216	-2.71362	-3.92487	
-1.30981	-2.06696	-2.68158	-3.90411	
-1.19629	-2.0755	-2.6297	-3.77777	
-1.08887	-1.92871	-2.62177	-3.64319	
-1.01379	-1.62903	-2.6297	-3.3847	
-1.00372	-1.41357	-2.56317	-3.0307	
-1.03943	-1.35406	-2.38464	-2.72644	
-1.09741	-1.34857	-2.16064	-2.5116	
-1.17004	-1.32141	-2.06024	-2.5351	
-1.23749	-1.30219	-2.14142	-2.61017	
-1.29608	-1.33698	-2.34497	-2.67365	
-1.33453	-1.43311	-2.52594	-2.6944	
-1.33209	-1.42883	-2.60498	-2.66571	
-1.27716	-1.34583	-2.61597	-2.65991	
-1.17889	-1.3147	-2.6474	-2.71423	
-1.06964	-1.39587	-2.74872	-2.8186	
-1.00372	-1.55273	-2.87689	-2.93549	
-1.02539	-1.74103	-2.98828	-3.06915	
-1.12457	-1.92078	-3.03162	-3.19336	
-1.26404	-2.03857	-3.00751	-3.22571	
-1.39801	-2.02698	-2.95929	-3.16528	
-1.47736	-1.91864	-2.93365	-3.08929	
-1.49017	-1.81488	-2.92664	-2.97913	
-1.42578	-1.80634	-2.90131	-2.93457	
-1.31531	-1.85638	-2.85156	-2.93304	
-1.20575	-1.8988	-2.83539	-2.9306	
-1.16455	-1.86401	-2.87506	-2.97485	
-1.18774	-1.75354	-2.87048	-2.79236	
-1.23322	-1.67908	-2.7298	-2.57568	
-1.20331	-1.69159	-2.47437	-2.32208	
-1.12061	-1.8042	-2.25464	-2.26715	
-1.05804	-1.92749	-2.19421	-2.40936	
-1.09772	-2.00348	-2.27203	-2.54974	
-1.21185	-2.03339	-2.39655	-2.56836	
-1.32874	-2.09198	-2.50366	-2.49115	
-1.39771	-2.20093	-2.58118	-2.41974	
-1.40717	-2.35077	-2.63	-2.35779	
-1.36841	-2.47009	-2.65259	-2.36298	
-1.29852	-2.48596	-2.64862	-2.39014	
-1.25397	-2.40082	-2.63794	-2.41974	
-1.26221	-2.25555	-2.61292	-2.39532	
-1.30829	-2.12952	-2.58423	-2.27295	
-1.32172	-2.08496	-2.54944	-2.13287	
-1.28967	-2.12372	-2.47406	-2.04041	
-1.26862	-2.19299	-2.34039	-2.03979	
-1.28113	-2.23511	-2.20062	-2.08374	
-1.29089	-2.229	-2.12097	-2.08038	
-1.2149	-2.21161	-2.16339	-2.04987	
-1.06995	-2.20428	-2.2699	-2.02789	
-0.987549	-2.19147	-2.33673	-1.97754	
-1.07147	-2.20001	-2.32849	-1.91223	
-1.27197	-2.23053	-2.27234	-1.85028	
-1.43158	-2.21741	-2.20123	-1.80664	
-1.44745	-2.12402	-2.12372	-1.87897	
-1.35834	-1.96106	-2.00653	-1.90582	
-1.27686	-1.8103	-1.86432	-1.90552	
-1.24176	-1.73462	-1.76697	-1.8338	
-1.21918	-1.75964	-1.7807	-1.84509	
-1.18866	-1.84357	-1.92505	-1.97113	
-1.16577	-1.90094	-2.08588	-2.10358	
-1.18622	-1.88782	-2.13165	-2.2052	
-1.25305	-1.80389	-2.02942	-2.29584	
-1.34491	-1.73035	-1.88202	-2.35718	
-1.42822	-1.7215	-1.81366	-2.33673	
-1.47247	-1.81549	-1.84662	-2.2583	
-1.50085	-2.0224	-1.91498	-2.18445	
-1.53656	-2.25433	-1.99768	-2.11426	
-1.59912	-2.4176	-2.09167	-2.03979	
-1.67816	-2.4295	-2.20154	-1.95099	
-1.74591	-2.29828	-2.28149	-1.88965	
-1.80725	-2.15912	-2.30438	-1.94885	
-1.82556	-2.12036	-2.2818	-2.1048	
-1.76575	-2.21405	-2.20886	-2.1759	
-1.6095	-2.39868	-2.11273	-2.14264	
-1.43219	-2.60254	-2.06482	-2.12494	
-1.32355	-2.79053	-2.07153	-2.25677	
-1.29944	-2.9483	-2.05597	-2.5116	
-1.29456	-3.12012	-1.96381	-2.6709	
-1.23596	-3.35358	-1.83014	-2.69135	
-1.10992	-3.63831	-1.80359	-2.56256	
-0.956421	-3.90686	-1.91986	-2.49695	
-0.852661	-4.08051	-2.12433	-2.36969	
-0.84198	-4.12872	-2.30957	-2.20551	
-0.916748	-4.07349	-2.42523	-1.98456	
-1.02081	-3.99628	-2.47284	-1.84662	
-1.09711	-3.9621	-2.47406	-1.83136	
-1.13342	-3.96301	-2.47009	-1.78711	
-1.14868	-3.98438	-2.47284	-1.67145	
-1.15479	-4.02069	-2.45667	-1.54602	
-1.16852	-4.07562	-2.41211	-1.50879	
-1.19812	-4.18945	-2.34528	-1.64886	
-1.25122	-4.32007	-2.27203	-1.90002	
-1.30707	-4.48486	-2.19879	-2.11029	
-1.36658	-4.65759	-2.14203	-2.25342	
-1.41022	-4.79828	-2.12982	-2.24396	
-1.39648	-4.82849	-2.16553	-2.13562	
-1.31287	-4.75128	-2.21283	-2.02484	
-1.18774	-4.61182	-2.24426	-1.92017	
-1.10199	-4.49432	-2.29095	-1.85577	
-1.08063	-4.47388	-2.35931	-1.78619	
-1.07697	-4.45435	-2.42371	-1.71692	
-1.03638	-4.38904	-2.45941	-1.72424	
-0.973206	-4.2218	-2.45667	-1.82831	
-0.941772	-4.02679	-2.44873	-1.97174	
-0.962524	-3.90442	-2.44263	-2.01965	
-1.04065	-3.86139	-2.4472	-1.8634	
-1.14349	-3.83667	-2.45361	-1.57684	
-1.25885	-3.78632	-2.41852	-1.43005	
-1.34674	-3.7674	-2.29492	-1.5744	
-1.35529	-3.86536	-2.07275	-1.9223	
-1.27197	-4.09485	-1.84296	-2.17102	
-1.13373	-4.37744	-1.75446	-2.23145	
-0.978088	-4.5636	-1.85791	-2.10114	
-0.882568	-4.55078	-2.07642	-1.93359	
-0.91095	-4.34998	-2.28149	-1.84662	
-1.08276	-4.06586	-2.37488	-1.77002	
-1.30798	-3.8205	-2.34833	-1.65039	
-1.46545	-3.65509	-2.25281	-1.43524	
-1.54327	-3.51501	-2.15088	-1.24969	
-1.60675	-3.3548	-2.0755	-1.14624	
-1.67786	-3.18695	-2.03583	-1.11115	
-1.7215	-3.06976	-2.0108	-1.13525	
-1.71906	-3.01392	-1.99615	-1.10443	
-1.72058	-2.98279	-1.96594	-1.11633	
-1.78101	-2.95227	-1.88354	-1.18591	
-1.88507	-2.94159	-1.77704	-1.21338	
-1.94977	-2.99805	-1.68488	-1.20361	
-1.90826	-3.12714	-1.64856	-1.1499	
-1.76483	-3.29254	-1.65192	-1.22345	
-1.586	-3.49121	-1.64368	-1.37573	
-1.45233	-3.65204	-1.61743	-1.45599	
-1.40533	-3.76343	-1.59515	-1.48285	
-1.41541	-3.78418	-1.60339	-1.44531	
-1.44958	-3.72101	-1.65619	-1.40961	
-1.49475	-3.63434	-1.74652	-1.4151	
-1.54358	-3.52264	-1.82404	-1.39709	
-1.57684	-3.38928	-1.83319	-1.40442	
-1.56525	-3.27454	-1.76086	-1.45508	
-1.52649	-3.1958	-1.67389	-1.53412	
-1.47858	-3.14636	-1.6626	-1.54205	
-1.44135	-3.08868	-1.71906	-1.51703	
-1.42578	-2.97455	-1.76727	-1.55243	
-1.4328	-2.87689	-1.71967	-1.59485	
-1.44196	-2.80121	-1.58752	-1.70563	
-1.39313	-2.8479	-1.45691	-1.71326	
-1.2677	-2.98676	-1.41083	-1.67175	
-1.09436	-3.19214	-1.4978	-1.70715	
-0.948181	-3.38654	-1.68427	-1.90643	
-0.885315	-3.54523	-1.86646	-2.23969	
-0.913086	-3.63678	-1.92108	-2.52136	
-1.00311	-3.68103	-1.84296	-2.63031	
-1.12488	-3.67096	-1.7453	-2.66846	
-1.26373	-3.60748	-1.74469	-2.66785	
-1.41205	-3.51013	-1.8161	-2.5592	
-1.52222	-3.37799	-1.84601	-2.37732	
-1.57104	-3.21442	-1.77338	-2.17926	
-1.5744	-3.03925	-1.65253	-2.05475	
-1.56891	-2.88849	-1.57043	-2.07214	
-1.57104	-2.78809	-1.54022	-2.07977	
-1.53839	-2.69897	-1.50238	-2.08313	
-1.44684	-2.59277	-1.4093	-1.99097	
-1.30127	-2.51953	-1.28571	-1.82159	
-1.14899	-2.53357	-1.19659	-1.64917	
-1.06384	-2.67883	-1.18286	-1.5802	
-1.08215	-2.91901	-1.23383	-1.77887	
-1.18347	-3.17932	-1.29547	-2.15668	
-1.28174	-3.39722	-1.31805	-2.54242	
-1.30035	-3.51257	-1.30554	-2.71088	
-1.24847	-3.50922	-1.2854	-2.69226	
-1.19354	-3.39569	-1.25946	-2.5351	
-1.2204	-3.20496	-1.2149	-2.38617	
-1.33423	-3.04535	-1.16394	-2.29156	
-1.46912	-2.95166	-1.13617	-2.26868	
-1.53137	-2.90009	-1.18256	-2.25006	
-1.5097	-2.86743	-1.31561	-2.29584	
-1.47125	-2.80334	-1.45233	-2.29584	
-1.49078	-2.71576	-1.51215	-2.28851	
-1.521	-2.60498	-1.45844	-2.35443	
-1.47095	-2.51373	-1.32141	-2.35352	
-1.28571	-2.46246	-1.20087	-2.20184	
-1.06262	-2.44568	-1.13647	-1.95404	
-0.94635	-2.43835	-1.14716	-1.85608	
-0.975037	-2.45514	-1.20117	-1.97968	
-1.08643	-2.53296	-1.28082	-2.13959	
-1.19385	-2.67853	-1.37451	-2.18811	
-1.26587	-2.81189	-1.4798	-2.15424	
-1.32202	-2.85919	-1.5863	-2.10388	
-1.37299	-2.81097	-1.67633	-2.16858	
-1.40961	-2.70142	-1.71356	-2.26898	
-1.44348	-2.55554	-1.70166	-2.32666	
-1.49963	-2.38129	-1.6922	-2.27753	
-1.55487	-2.21008	-1.73584	-2.24335	
-1.59424	-2.11731	-1.81061	-2.28088	
-1.56982	-2.12982	-1.79474	-2.33063	
-1.44745	-2.19543	-1.63269	-2.21039	
-1.25458	-2.27448	-1.41052	-1.99219	
-1.04095	-2.37091	-1.28082	-1.86493	
-0.871887	-2.5119	-1.29181	-1.96625	
-0.801392	-2.68524	-1.37451	-2.20428	
-0.78186	-2.82013	-1.38092	-2.32513	
-0.779114	-2.90588	-1.2793	-2.31689	
-0.774231	-3.02399	-1.12762	-2.27753	
-0.761719	-3.27728	-1.0376	-2.24457	
-0.757141	-3.68591	-1.07971	-2.21497	
-0.751343	-4.14246	-1.21887	-2.19086	
-0.76416	-4.48608	-1.3678	-2.20856	
-0.794983	-4.57428	-1.45538	-2.23633	
-0.843201	-4.41467	-1.5036	-2.17926	
-0.911255	-4.08386	-1.57043	-1.97998	
-1.01959	-3.72314	-1.62842	-1.7337	
-1.14716	-3.41919	-1.59515	-1.54175	
-1.22925	-3.2312	-1.43982	-1.47888	
-1.22101	-3.13385	-1.24054	-1.59912	
-1.15417	-3.05603	-1.08948	-1.65314	
-1.10077	-2.95624	-1.03485	-1.5271	
-1.10229	-2.81952	-1.0495	-1.22375	
-1.14624	-2.68951	-1.08032	-0.905151	
-1.18561	-2.64343	-1.07666	-0.803833	
-1.21216	-2.72583	-0.974426	-0.922546	
-1.22375	-2.88513	-0.812988	-1.11053	
-1.24329	-3.00018	-0.639648	-1.26495	
-1.28143	-3.00049	-0.552673	-1.30676	
-1.35559	-2.91168	-0.596924	-1.20514	
-1.45538	-2.80518	-0.705566	-1.08154	
-1.50604	-2.7652	-0.771484	-1.00311	
-1.4801	-2.77893	-0.736084	-1.02661	
-1.39099	-2.81006	-0.629883	-1.03912	
-1.30585	-2.77191	-0.570068	-1.07849	
-1.26801	-2.60559	-0.586548	-1.18439	
-1.26953	-2.37213	-0.670471	-1.27228	
-1.31134	-2.15973	-0.751038	-1.26343	
-1.38245	-2.06146	-0.814514	-1.12732	
-1.48987	-2.07336	-0.855408	-0.861816	
-1.59851	-2.1524	-0.892029	-0.620422	
-1.6748	-2.29279	-0.888672	-0.507202	
-1.66626	-2.39594	-0.823059	-0.507813	
-1.57013	-2.39441	-0.699463	-0.605164	
-1.42761	-2.30713	-0.585022	-0.774231	
-1.27167	-2.23663	-0.511475	-0.905762	
-1.13617	-2.29431	-0.498047	-1.026	
-1.073	-2.46155	-0.576782	-1.10504	
-1.09497	-2.6828	-0.704956	-1.10596	
-1.16638	-2.90375	-0.812988	-1.10657	
-1.23566	-3.11096	-0.85022	-1.09802	
-1.29456	-3.27484	-0.869751	-1.10565	
-1.362	-3.35632	-0.952759	-1.13953	
-1.39557	-3.30292	-1.07178	-1.1673	
-1.35406	-3.16437	-1.17401	-1.26251	
-1.28021	-2.98981	-1.24451	-1.32935	
-1.2207	-2.84485	-1.27716	-1.23474	
-1.21002	-2.72858	-1.26923	-0.993652	
-1.24695	-2.62909	-1.24695	-0.859375	
-1.26831	-2.5177	-1.21887	-0.846252	
-1.24634	-2.4057	-1.17645	-0.921021	
-1.1676	-2.29828	-1.11938	-0.970154	
-1.07391	-2.24274	-1.06171	-1.04218	
-1.03241	-2.25677	-1.0318	-1.1261	
-1.05713	-2.34894	-0.999756	-1.22925	
-1.11084	-2.54181	-0.896301	-1.39984	
-1.16272	-2.83539	-0.72998	-1.54449	
-1.20087	-3.17322	-0.619507	-1.66443	
-1.2561	-3.45428	-0.674438	-1.70776	
-1.35162	-3.54218	-0.864563	-1.63727	
-1.48956	-3.42896	-1.09039	-1.46576	
-1.66229	-3.17871	-1.25458	-1.23932	
-1.84296	-2.92908	-1.35376	-1.01776	
-2.01355	-2.74841	-1.38855	-0.905762	
-2.13348	-2.65533	-1.34521	-0.974121	
-2.18018	-2.62207	-1.21857	-1.11328	
-2.16248	-2.6181	-1.02844	-1.15295	
-2.09442	-2.60925	-0.84198	-1.04462	
-2.01599	-2.62177	-0.724182	-0.924988	
-1.92932	-2.67334	-0.688477	-0.976563	
-1.83655	-2.78687	-0.706482	-1.13068	
-1.73126	-2.96204	-0.745544	-1.27838	
-1.59271	-3.1424	-0.75531	-1.34735	
-1.49017	-3.25653	-0.768433	-1.34766	
-1.49109	-3.30261	-0.820007	-1.30859	
-1.64825	-3.37585	-0.950623	-1.26434	
-1.94702	-3.49976	-1.1441	-1.31683	
-2.26929	-3.66028	-1.33759	-1.54572	
-2.50641	-3.7796	-1.47034	-1.93848	
-2.60193	-3.83698	-1.54083	-2.21588	
-2.59125	-3.89923	-1.56128	-2.24884	
-2.54303	-3.94775	-1.55121	-2.1402	
-2.49359	-3.98895	-1.50879	-2.04407	
-2.43469	-3.99261	-1.44257	-2.02484	
-2.35718	-3.974	-1.36658	-2.02332	
-2.29706	-3.91479	-1.29395	-1.94183	
-2.25372	-3.83789	-1.21948	-1.85913	
-2.18384	-3.77197	-1.15448	-1.79474	
-2.0575	-3.7381	-1.09833	-1.75598	
-1.90674	-3.74512	-1.03882	-1.67816	
-1.80664	-3.73413	-0.984192	-1.54907	
-1.80725	-3.74176	-0.970459	-1.50208	
-1.88843	-3.8028	-1.02478	-1.58478	
-2.01294	-3.88	-1.13251	-1.74164	
-2.1521	-3.98285	-1.27014	-1.97235	
-2.30652	-4.086	-1.47186	-2.23419	
-2.42676	-4.16534	-1.69678	-2.49847	
-2.51617	-4.17816	-1.85547	-2.72125	
-2.55402	-4.08875	-1.88965	-2.83966	
-2.55859	-3.98651	-1.82037	-2.80853	
-2.52136	-3.89771	-1.71265	-2.61047	
-2.44537	-3.80951	-1.63086	-2.37671	
-2.37335	-3.62244	-1.59424	-2.19086	
-2.33734	-3.3667	-1.61407	-2.24426	
-2.27783	-3.17719	-1.66077	-2.35962	
-2.11029	-3.14758	-1.65344	-2.38892	
-1.85059	-3.23212	-1.5686	-2.24152	
-1.63361	-3.28094	-1.46423	-2.05017	
-1.55487	-3.16101	-1.45142	-2.00958	
-1.60126	-2.91901	-1.57043	-2.09656	
-1.66992	-2.64679	-1.75781	-2.15179	
-1.73187	-2.48627	-1.92169	-2.10541	
-1.79779	-2.49695	-2.03033	-2.00989	
-1.86707	-2.63824	-2.06299	-1.94214	
-1.91101	-2.80212	-2.06146	-2.01294	
-1.90063	-2.97272	-2.05322	-2.12067	
-1.85547	-3.10181	-2.07001	-2.19116	
-1.84143	-3.18878	-2.10083	-2.21863	
-1.89209	-3.16711	-2.08344	-2.24762	
-1.99982	-3.04047	-1.99951	-2.28607	
-2.08435	-2.94067	-1.87805	-2.27783	
-2.08313	-2.97058	-1.7746	-2.30682	
-1.99036	-3.12317	-1.68427	-2.44812	
-1.87408	-3.26294	-1.5509	-2.73529	
-1.8338	-3.26324	-1.38397	-2.98431	
-1.90552	-3.14087	-1.24634	-3.03925	
-2.02362	-2.98248	-1.2204	-2.84058	
-2.10999	-2.86835	-1.33423	-2.53693	
-2.08374	-2.79297	-1.53412	-2.37762	
-1.99219	-2.72369	-1.73431	-2.42493	
-1.91101	-2.6532	-1.87469	-2.50824	
-1.88782	-2.60315	-1.92566	-2.60345	
-1.92993	-2.61505	-1.90643	-2.70111	
-1.98975	-2.65991	-1.83563	-2.75421	
-2.02667	-2.69409	-1.72852	-2.70966	
-2.04254	-2.67548	-1.65314	-2.50214	
-2.07214	-2.58545	-1.68121	-2.33643	
-2.099	-2.4826	-1.83624	-2.30774	
-2.09869	-2.42004	-2.01508	-2.41119	
-2.04681	-2.39136	-2.09686	-2.44537	
-1.98608	-2.38464	-2.06848	-2.35138	
-1.99402	-2.36481	-2.0517	-2.20795	
-2.07764	-2.36694	-2.13043	-2.16858	
-2.18201	-2.34985	-2.26166	-2.09747	
-2.22626	-2.26227	-2.3468	-1.99066	
-2.17407	-2.08954	-2.33887	-1.87805	
-2.04224	-1.85364	-2.25861	-1.77551	
-1.87103	-1.68518	-2.11609	-1.6626	
-1.71234	-1.67053	-1.94458	-1.54114	
-1.6217	-1.78192	-1.77277	-1.39832	
-1.61377	-1.92596	-1.67206	-1.27472	
-1.64612	-2.0343	-1.7157	-1.26648	
-1.66962	-2.10785	-1.89423	-1.36292	
-1.64154	-2.19513	-2.09991	-1.62537	
-1.57593	-2.33826	-2.18597	-1.86584	
-1.54205	-2.52686	-2.0752	-1.94	
-1.57745	-2.68097	-1.83197	-1.84509	
-1.6629	-2.72247	-1.62323	-1.71692	
-1.73065	-2.64496	-1.5625	-1.75842	
-1.76239	-2.5293	-1.68152	-1.92688	
-1.78741	-2.48871	-1.87134	-2.03491	
-1.83746	-2.55676	-2.03125	-2.08344	
-1.87744	-2.71057	-2.09198	-2.03552	
-1.85944	-2.85461	-2.05475	-1.92749	
-1.79688	-2.8894	-1.9989	-1.8222	
-1.73737	-2.80609	-2.00012	-1.69586	
-1.70013	-2.66388	-2.07306	-1.6394	
-1.65649	-2.55615	-2.16705	-1.53595	
-1.6098	-2.51587	-2.24884	-1.43982	
-1.57227	-2.54364	-2.29218	-1.28479	
-1.52252	-2.58698	-2.26898	-1.05743	
-1.43738	-2.68372	-2.16705	-0.870056	
-1.31989	-2.79572	-2.04346	-0.751343	
-1.21613	-2.91595	-1.99127	-0.679932	
-1.22284	-3.02002	-2.03522	-0.688477	
-1.33118	-3.09296	-2.11029	-0.646973	
-1.48376	-3.1192	-2.13898	-0.518188	
-1.58875	-3.08685	-2.11823	-0.325623	
-1.59332	-3.01025	-2.06451	-0.169983	
-1.53137	-2.90863	-1.98944	-0.134277	
-1.46118	-2.81494	-1.90216	-0.188293	
-1.40961	-2.72552	-1.82343	-0.244751	
-1.36963	-2.65106	-1.77948	-0.273132	
-1.33301	-2.66724	-1.77094	-0.299072	
-1.32294	-2.74475	-1.78223	-0.26062	
-1.38092	-2.85767	-1.8042	-0.107422	
-1.49536	-2.92297	-1.79962	0.194397	
-1.59302	-2.94403	-1.74713	0.46875	
-1.5921	-2.99316	-1.64825	0.523376	
-1.49475	-3.07251	-1.52679	0.320129	
-1.36841	-3.13354	-1.42242	0.0808716	
-1.3089	-3.17566	-1.37543	-0.0576782	
-1.35651	-3.1781	-1.38702	-0.0836182	
-1.50635	-3.11798	-1.39587	0.0390625	
-1.68396	-2.96234	-1.34766	0.221558	
-1.82373	-2.74963	-1.24451	0.405273	
-1.90582	-2.54974	-1.15082	0.499573	
-1.9516	-2.3938	-1.11115	0.505676	
-1.9754	-2.25281	-1.12213	0.455933	
-1.97205	-2.14508	-1.13434	0.426941	
-1.96259	-2.09198	-1.13525	0.419006	
-1.97021	-2.10236	-1.12946	0.435181	
-2.00165	-2.14783	-1.10107	0.473328	
-2.01691	-2.20764	-1.07483	0.472107	
-2.00684	-2.24731	-1.05255	0.360107	
-1.99249	-2.27509	-1.02997	0.145264	
-2.02301	-2.28149	-1.0144	-0.00915527	
-2.11517	-2.29431	-1.01807	-0.0210571	
-2.23053	-2.30042	-1.05682	0.0820923	
-2.31079	-2.27753	-1.10931	0.135193	
-2.31598	-2.23999	-1.10474	0.122375	
-2.26288	-2.23358	-1.05743	0.125732	
-2.20764	-2.2818	-1.03149	0.143738	
-2.16431	-2.35687	-1.02692	0.179138	
-2.1051	-2.35596	-1.01868	0.195007	
-2.01813	-2.22443	-0.975647	0.218811	
-1.95435	-2.01996	-0.903625	0.340271	
-1.92749	-1.88293	-0.83252	0.441284	
-1.91223	-1.92505	-0.777283	0.314941	
-1.85486	-2.19116	-0.780945	-0.0534058	
-1.73584	-2.58026	-0.844727	-0.477905	
-1.62079	-2.97577	-0.951538	-0.870667	
-1.55212	-3.25775	-1.01837	-1.13586	
-1.52344	-3.36975	-0.997314	-1.29486	
-1.50787	-3.32367	-0.917664	-1.38672	
-1.49384	-3.20526	-0.847473	-1.43524	
-1.51123	-3.09052	-0.827332	-1.39496	
-1.58356	-3.02338	-0.823975	-1.26801	
-1.67267	-3.00507	-0.784607	-1.13831	
-1.71631	-2.98157	-0.683594	-1.05927	
-1.68365	-2.90619	-0.558472	-1.01746	
-1.59302	-2.79968	-0.447388	-0.995789	
-1.49689	-2.69073	-0.375061	-0.891418	
-1.41602	-2.60864	-0.336914	-0.694885	
-1.35529	-2.59888	-0.315552	-0.525208	
-1.30463	-2.71362	-0.300903	-0.568237	
-1.26892	-2.9541	-0.293274	-0.873108	
-1.21857	-3.27026	-0.309753	-1.2735	
-1.17218	-3.56323	-0.363464	-1.58691	
-1.17157	-3.80035	-0.46051	-1.73492	
-1.25885	-3.98224	-0.563965	-1.82251	
-1.4209	-4.15527	-0.634766	-1.81915	
-1.58295	-4.30176	-0.666504	-1.76727	
-1.65497	-4.34875	-0.641785	-1.68762	
-1.62903	-4.27429	-0.575867	-1.65802	
-1.5332	-4.08691	-0.502014	-1.74194	
-1.4151	-3.86353	-0.455017	-1.77673	
-1.32294	-3.68622	-0.483093	-1.71844	
-1.28357	-3.59253	-0.579834	-1.60614	
-1.30707	-3.58582	-0.698547	-1.47766	
-1.38977	-3.62396	-0.783386	-1.44836	
-1.48315	-3.66211	-0.81604	-1.49597	
-1.5271	-3.65479	-0.811462	-1.53595	
-1.49994	-3.64258	-0.828857	-1.51123	
-1.43768	-3.61786	-0.880432	-1.45569	
-1.3913	-3.61084	-0.974731	-1.51001	
-1.38275	-3.60779	-1.04797	-1.55945	
-1.39221	-3.61908	-1.05927	-1.6095	
-1.3681	-3.62671	-1.00555	-1.63116	
-1.29486	-3.57513	-0.906067	-1.64764	
-1.2204	-3.50189	-0.814819	-1.6803	
-1.18591	-3.43842	-0.754395	-1.73828	
-1.21643	-3.41705	-0.724792	-1.80084	
-1.26526	-3.39111	-0.698547	-1.85394	
-1.29883	-3.32794	-0.615234	-1.70197	
-1.32172	-3.25012	-0.484619	-1.43158	
-1.32904	-3.20496	-0.361023	-1.18011	
-1.33331	-3.21136	-0.315857	-1.13129	
-1.34918	-3.27087	-0.362244	-1.34705	
-1.41052	-3.36121	-0.417786	-1.68793	
-1.49811	-3.41583	-0.409546	-1.92535	
-1.57227	-3.41156	-0.36499	-2.02271	
-1.60614	-3.38043	-0.344238	-1.99005	
-1.60889	-3.36395	-0.357971	-1.86218	
-1.59271	-3.34778	-0.361328	-1.6922	
-1.5979	-3.32916	-0.327148	-1.56616	
-1.62689	-3.25165	-0.281372	-1.5387	
-1.65771	-3.13293	-0.263062	-1.64551	
-1.64429	-2.99927	-0.288696	-1.8399	
-1.57532	-2.91962	-0.342407	-1.93695	
-1.49536	-2.90619	-0.367737	-1.83868	
-1.43158	-2.91626	-0.328369	-1.62048	
-1.39618	-2.90192	-0.236816	-1.4325	
-1.35071	-2.83112	-0.108643	-1.35132	
-1.30737	-2.73529	0.0125122	-1.31836	
-1.27045	-2.64587	0.0805664	-1.29242	
-1.23871	-2.5885	0.0997925	-1.2738	
-1.24878	-2.64343	0.0613403	-1.38458	
-1.30463	-2.77588	-0.0106812	-1.61255	
-1.38916	-2.89001	-0.105286	-1.81549	
-1.46729	-2.90771	-0.218506	-1.85333	
-1.51337	-2.82898	-0.329285	-1.77643	
-1.52496	-2.75269	-0.383301	-1.73676	
-1.49475	-2.76581	-0.329285	-1.61896	
-1.42426	-2.86865	-0.21637	-1.51306	
-1.34552	-3.01117	-0.140381	-1.35681	
-1.31592	-3.12744	-0.159912	-1.29059	
-1.31317	-3.15308	-0.226746	-1.33698	
-1.3089	-3.10028	-0.247192	-1.49933	
-1.27319	-3.00262	-0.198364	-1.71112	
-1.22162	-2.87415	-0.118408	-1.78955	
-1.17889	-2.76276	-0.0662231	-1.65497	
-1.15753	-2.73987	-0.0952148	-1.40106	
-1.16913	-2.85095	-0.227051	-1.21338	
-1.21735	-3.03467	-0.422058	-1.29791	
-1.30005	-3.20557	-0.582275	-1.57043	
-1.39526	-3.28796	-0.632324	-1.87439	
-1.44836	-3.24677	-0.59845	-2.09473	
-1.42792	-3.06793	-0.577087	-2.16858	
-1.3504	-2.83203	-0.640564	-2.10907	
-1.28235	-2.58423	-0.785217	-2.00104	
-1.25641	-2.43744	-0.915833	-1.90094	
-1.25671	-2.39227	-0.980225	-1.89209	
-1.22559	-2.43164	-0.961304	-1.95404	
-1.1441	-2.5354	-0.881348	-2.03888	
-1.02783	-2.66724	-0.78186	-2.15576	
-0.871582	-2.81403	-0.678711	-2.20032	
-0.673828	-2.94922	-0.609131	-2.25098	
-0.467529	-3.06549	-0.587463	-2.36603	
-0.332031	-3.12225	-0.625916	-2.5351	
-0.334473	-3.05328	-0.709229	-2.63519	
-0.458679	-2.87201	-0.813599	-2.66083	
-0.630798	-2.63458	-0.862427	-2.65991	
-0.777588	-2.44568	-0.777588	-2.64557	
-0.863647	-2.37946	-0.584717	-2.71118	
-0.884094	-2.42981	-0.427856	-2.85645	
-0.881042	-2.54578	-0.402527	-2.92725	
-0.900574	-2.66205	-0.501099	-2.84576	
-0.960388	-2.76123	-0.605469	-2.58514	
-1.05804	-2.81891	-0.617065	-2.35657	
-1.14716	-2.81586	-0.56366	-2.29095	
-1.19232	-2.76367	-0.516357	-2.44019	
-1.15631	-2.7179	-0.502319	-2.71118	
-1.01044	-2.74414	-0.506592	-2.96753	
-0.791321	-2.85736	-0.499878	-3.12073	
-0.580139	-3.06091	-0.489502	-3.11157	
-0.489197	-3.28888	-0.493774	-3.03955	
-0.623169	-3.47473	-0.526123	-2.99408	
-0.967712	-3.55804	-0.626831	-3.05481	
-1.39282	-3.50952	-0.769653	-3.06976	
-1.7099	-3.37311	-0.841064	-2.93182	
-1.83228	-3.20099	-0.818787	-2.73651	
-1.8396	-3.01605	-0.796204	-2.62329	
-1.85181	-2.88666	-0.868225	-2.59979	
-1.93085	-2.84882	-1.01715	-2.53967	
-2.05658	-2.87781	-1.12854	-2.388	
-2.1875	-2.8952	-1.13953	-2.10785	
-2.28851	-2.84027	-1.09222	-1.86401	
-2.33337	-2.75269	-1.073	-1.67938	
-2.29218	-2.7536	-1.09558	-1.6275	
-2.16431	-2.83966	-1.10626	-1.62415	
-1.98486	-2.99194	-1.05591	-1.69403	
-1.75507	-3.1601	-0.874634	-1.80084	
-1.53198	-3.27545	-0.62439	-1.80695	
-1.39587	-3.30139	-0.435181	-1.70746	
-1.37756	-3.25256	-0.360107	-1.58203	
-1.4502	-3.2019	-0.379028	-1.63177	
-1.55365	-3.16254	-0.394287	-1.89911	
-1.68152	-3.09204	-0.367432	-2.23785	
-1.83533	-2.94312	-0.322876	-2.46277	
-1.98334	-2.72766	-0.307922	-2.4649	
-2.06848	-2.53479	-0.31189	-2.37274	
-2.08801	-2.4057	-0.30304	-2.27325	
-2.09381	-2.3233	-0.223083	-2.16705	
-2.10419	-2.30316	-0.0653076	-2.01233	
-2.12891	-2.2937	0.105286	-1.87775	
-2.15546	-2.25739	0.205383	-1.82861	
-2.19513	-2.14935	0.215454	-1.84357	
-2.22351	-2.02515	0.179443	-1.91681	
-2.18323	-2.03918	0.194702	-1.97479	
-2.0459	-2.23755	0.29541	-1.95953	
-1.84387	-2.54028	0.426025	-1.94061	
-1.66473	-2.75879	0.515442	-1.90186	
-1.59668	-2.78107	0.524292	-1.88538	
-1.66077	-2.67639	0.456543	-1.92169	
-1.83044	-2.58118	0.294495	-2.00439	
-2.02667	-2.52655	0.06073	-2.12738	
-2.18597	-2.48688	-0.166931	-2.16888	
-2.27722	-2.43256	-0.299072	-2.1225	
-2.31903	-2.34497	-0.314331	-1.93298	
-2.34283	-2.22321	-0.270386	-1.71692	
-2.33307	-2.06238	-0.244446	-1.52802	
-2.29797	-1.96381	-0.267944	-1.41327	
-2.25433	-1.90521	-0.32196	-1.28204	
-2.23663	-1.85272	-0.366821	-1.1731	
-2.25098	-1.74255	-0.37384	-1.07422	
-2.27295	-1.61224	-0.368958	-0.962219	
-2.25983	-1.57104	-0.404358	-0.933838	
-2.20978	-1.6748	-0.469971	-0.970764	
-2.0874	-1.87408	-0.484314	-1.04126	
-1.92566	-2.09564	-0.38147	-1.0495	
-1.79413	-2.26196	-0.256042	-1.05621	
-1.78131	-2.32758	-0.238647	-1.10962	
-1.85028	-2.34863	-0.327148	-1.24969	
-1.89392	-2.30377	-0.379944	-1.1792	
-1.86462	-2.25006	-0.309753	-0.888672	
-1.78497	-2.22504	-0.164185	-0.478516	
-1.75354	-2.21222	-0.0814819	-0.198975	
-1.77826	-2.19147	-0.0952148	-0.140076	
-1.82037	-2.11823	-0.176086	-0.151062	
-1.83746	-2.03003	-0.289307	-0.0952148	
-1.80481	-1.95496	-0.396423	0.078125	
-1.75262	-1.90826	-0.469971	0.300598	
-1.70258	-1.89087	-0.464783	0.513916	
-1.64551	-1.97052	-0.384827	0.59082	
-1.57715	-2.19482	-0.298157	0.441284	
-1.49628	-2.52075	-0.238037	0.221863	
-1.42853	-2.83051	-0.235901	0.0445557	
-1.38794	-3.00964	-0.297852	-0.088501	
-1.40289	-3.04352	-0.423889	-0.179443	
-1.48224	-2.97607	-0.59082	-0.220337	
-1.62109	-2.86774	-0.733948	-0.241089	
-1.76819	-2.78046	-0.785828	-0.286255	
-1.87103	-2.71729	-0.714417	-0.254517	
-1.89911	-2.68188	-0.578613	-0.162964	
-1.86066	-2.72308	-0.484619	-0.0537109	
-1.80939	-2.84302	-0.484009	0.100098	
-1.80481	-2.95898	-0.565491	0.206604	
-1.86981	-2.96448	-0.679016	0.339355	
-1.96686	-2.77374	-0.783691	0.458984	
-2.02454	-2.45758	-0.849915	0.521851	
-2.00623	-2.18597	-0.854187	0.565796	
-1.90735	-2.07214	-0.797729	0.591125	
-1.7746	-2.15698	-0.697327	0.596619	
-1.67328	-2.35626	-0.586243	0.537415	
-1.64917	-2.58301	-0.528259	0.342712	
-1.69678	-2.7359	-0.566711	0.105286	
-1.75781	-2.79449	-0.682068	-0.0610352	
-1.79474	-2.81708	-0.777588	-0.127258	
-1.78009	-2.90009	-0.770264	-0.126038	
-1.69342	-3.01208	-0.690918	-0.107422	
-1.53137	-3.07465	-0.627441	-0.102539	
-1.34247	-3.02704	-0.59082	-0.0302124	
-1.21582	-2.91443	-0.545044	0.122681	
-1.19446	-2.81616	-0.489807	0.28595	
-1.24146	-2.7301	-0.475464	0.302734	
-1.30798	-2.61353	-0.523071	0.247498	
-1.33728	-2.50885	-0.594177	0.174255	
-1.28601	-2.42218	-0.645142	0.114441	
-1.15387	-2.40906	-0.67749	0.150452	
-0.985413	-2.42706	-0.703735	0.205078	
-0.885315	-2.51343	-0.691223	0.182495	
-0.911865	-2.68677	-0.661011	-0.0250244	
-1.02417	-2.92694	-0.626831	-0.37262	
-1.16516	-3.15582	-0.657043	-0.685425	
-1.2793	-3.3197	-0.77179	-0.907898	
-1.37054	-3.3786	-0.949402	-1.00891	
-1.45386	-3.36792	-1.11084	-0.983887	
-1.52985	-3.35663	-1.19873	-0.911255	
-1.58569	-3.37585	-1.20575	-0.823669	
-1.57959	-3.39996	-1.17767	-0.812073	
-1.53015	-3.41827	-1.1499	-0.904541	
-1.46637	-3.38776	-1.12152	-1.04523	
-1.38641	-3.31116	-1.05316	-1.16211	
-1.24969	-3.13263	-0.95459	-1.15784	
-1.06293	-2.87323	-0.855103	-1.05103	
-0.898743	-2.57263	-0.78125	-0.902405	
-0.815735	-2.31934	-0.701904	-0.634155	
-0.8078	-2.2229	-0.600586	-0.455627	
-0.836792	-2.28729	-0.500793	-0.398865	
-0.906677	-2.44354	-0.451965	-0.541077	
-1.01044	-2.5824	-0.471802	-0.812073	
-1.11755	-2.62115	-0.553284	-0.997314	
-1.19568	-2.55341	-0.638428	-0.939331	
-1.24573	-2.47375	-0.696411	-0.728455	
-1.28967	-2.44049	-0.711975	-0.563354	
-1.31927	-2.44812	-0.693359	-0.566101	
-1.32446	-2.49023	-0.671692	-0.730591	
-1.297	-2.53235	-0.657959	-0.908508	
-1.24878	-2.61169	-0.613098	-1.04492	
-1.18622	-2.63641	-0.48645	-1.12762	
-1.12213	-2.56134	-0.301819	-1.17004	
-1.07239	-2.3819	-0.142822	-1.2442	
-1.02173	-2.16156	-0.108337	-1.34766	
-0.949402	-1.94244	-0.213013	-1.409	
-0.853271	-1.73645	-0.372314	-1.36322	
-0.802307	-1.59363	-0.497131	-1.23199	
-0.825195	-1.52557	-0.551147	-1.10168	
-0.915222	-1.55121	-0.555115	-1.08582	
-1.05286	-1.60553	-0.594177	-1.14227	
-1.18927	-1.62994	-0.695801	-1.25	
-1.29761	-1.58875	-0.837097	-1.36505	
-1.35315	-1.49872	-0.978699	-1.49078	
-1.33759	-1.40564	-1.08887	-1.56433	
-1.26862	-1.32172	-1.16608	-1.60675	
-1.17584	-1.32141	-1.23016	-1.65314	
-1.09833	-1.41296	-1.27106	-1.66565	
-1.07117	-1.51031	-1.29333	-1.59637	
-1.05682	-1.52588	-1.29669	-1.50635	
-0.996399	-1.44623	-1.25	-1.40503	
-0.871277	-1.40533	-1.13831	-1.36444	
-0.744934	-1.49658	-0.982971	-1.44043	
-0.683289	-1.69769	-0.846558	-1.60522	
-0.682373	-1.9043	-0.783386	-1.75873	
-0.695801	-2.05231	-0.817261	-1.9223	
-0.687866	-2.12433	-0.888977	-1.9873	
-0.662231	-2.1283	-0.939636	-1.86218	
-0.651855	-2.08954	-0.951538	-1.63727	
-0.690918	-2.06329	-0.932617	-1.48041	
-0.777283	-2.04102	-0.939331	-1.49994	
-0.919495	-2.03308	-1.00494	-1.63818	
-1.05103	-1.99524	-1.10229	-1.71143	
-1.08795	-1.90979	-1.19537	-1.74927	
-1.03973	-1.82739	-1.25122	-1.80969	
-0.971375	-1.82983	-1.26556	-1.83319	
-0.991821	-1.9223	-1.28296	-1.84174	
-1.08307	-2.05017	-1.27655	-1.76422	
-1.16028	-2.08496	-1.19873	-1.70685	
-1.16638	-2.01416	-1.06873	-1.7807	
-1.11908	-1.89972	-0.95459	-1.9751	
-1.05469	-1.83868	-0.892639	-2.08832	
-0.983582	-1.91986	-0.88623	-2.11426	
-0.916443	-2.1579	-0.889893	-2.06329	
-0.873413	-2.43317	-0.900269	-2.10938	
-0.871887	-2.64771	-0.915527	-2.33612	
-0.890503	-2.71576	-0.935364	-2.67426	
-0.905457	-2.68188	-0.910034	-2.79816	
-0.881042	-2.64252	-0.859985	-2.64771	
-0.810852	-2.60925	-0.802612	-2.30713	
-0.709839	-2.59399	-0.767517	-2.04773	
-0.620728	-2.48901	-0.763855	-1.88446	
-0.577087	-2.36389	-0.767212	-1.74469	
-0.579224	-2.28485	-0.778503	-1.59058	
-0.582581	-2.33002	-0.776672	-1.43829	
-0.551147	-2.47711	-0.759277	-1.35223	
-0.473022	-2.65625	-0.730896	-1.25061	
-0.355835	-2.77588	-0.729065	-1.15723	
-0.267639	-2.81464	-0.765991	-1.05225	
-0.244751	-2.8125	-0.810547	-0.917664	
-0.307007	-2.83356	-0.821838	-0.830078	
-0.409241	-2.87811	-0.777588	-0.785217	
-0.492859	-2.9068	-0.733337	-0.931396	
-0.544434	-2.8775	-0.711365	-1.14197	
-0.588684	-2.83875	-0.704956	-1.24878	
-0.628662	-2.82196	-0.696411	-1.19049	
-0.619202	-2.85309	-0.687866	-1.02631	
-0.531921	-2.92847	-0.687561	-0.905457	
-0.411987	-3.03009	-0.649414	-0.820313	
-0.330505	-3.17017	-0.532532	-0.754089	
-0.327759	-3.27332	-0.365601	-0.759888	
-0.349426	-3.31238	-0.220642	-0.823364	
-0.335083	-3.32947	-0.176392	-0.942383	
-0.278625	-3.39661	-0.224304	-1.04706	
-0.232544	-3.53088	-0.32074	-1.00586	
-0.263367	-3.64105	-0.45105	-0.924988	
-0.384521	-3.66455	-0.591431	-0.898743	
-0.559998	-3.54889	-0.704651	-0.817566	
-0.71991	-3.34106	-0.740356	-0.686646	
-0.820923	-3.1131	-0.718384	-0.516968	
-0.841064	-2.94373	-0.684509	-0.413208	
-0.784302	-2.87567	-0.706177	-0.30304	
-0.687866	-2.88208	-0.763245	-0.209351	
-0.605164	-2.94281	-0.810547	-0.138245	
-0.567932	-3.06061	-0.787048	-0.20752	
-0.56366	-3.20313	-0.726624	-0.385742	
-0.557861	-3.32764	-0.684814	-0.525208	
-0.523071	-3.39752	-0.684204	-0.550537	
-0.424194	-3.41614	-0.675659	-0.513611	
-0.251465	-3.44543	-0.604553	-0.513916	
-0.050354	-3.52173	-0.519409	-0.625916	
0.0967407	-3.61176	-0.491333	-0.804138	
0.123596	-3.66211	-0.566101	-0.896301	
0.0375366	-3.5965	-0.717468	-0.843811	
-0.104675	-3.41522	-0.906677	-0.688477	
-0.247498	-3.24615	-1.06445	-0.631104	
-0.387268	-3.1546	-1.14807	-0.776978	
-0.554504	-3.19061	-1.18896	-1.07269	
-0.736389	-3.28735	-1.22894	-1.203	
-0.875854	-3.38257	-1.29639	-1.09283	
-0.943909	-3.42102	-1.32874	-0.80719	
-0.961304	-3.396	-1.27411	-0.523376	
-0.986938	-3.33801	-1.18774	-0.434875	
-1.0022	-3.31207	-1.1377	-0.518494	
-0.9552	-3.3429	-1.16028	-0.62561	
-0.793152	-3.39844	-1.17462	-0.59906	
-0.54657	-3.45764	-1.11267	-0.499878	
-0.290833	-3.45398	-0.958557	-0.379333	
-0.110474	-3.43597	-0.783386	-0.315857	
-0.0680542	-3.46436	-0.681152	-0.375977	
-0.151672	-3.59161	-0.687561	-0.506287	
-0.306091	-3.76984	-0.771179	-0.722351	
-0.457458	-3.93066	-0.874634	-0.871582	
-0.548096	-4.08722	-0.978699	-0.894775	
-0.580444	-4.19434	-1.04889	-0.805054	
-0.567322	-4.2395	-1.08002	-0.725708	
-0.550842	-4.17908	-1.10718	-0.72998	
-0.56427	-4.06189	-1.14319	-0.732727	
-0.593872	-3.94867	-1.20239	-0.656738	
-0.646667	-3.86444	-1.27899	-0.569763	
-0.708313	-3.79059	-1.37756	-0.578613	
-0.743713	-3.68958	-1.46698	-0.58136	
-0.706787	-3.55042	-1.47186	-0.599365	
-0.546875	-3.38257	-1.33698	-0.582886	
-0.335388	-3.23883	-1.12518	-0.578003	
-0.184631	-3.13568	-0.98938	-0.595398	
-0.150757	-3.15247	-0.995789	-0.690918	
-0.198669	-3.32214	-1.08185	-0.827637	
-0.229492	-3.57086	-1.15662	-0.926514	
-0.217285	-3.75458	-1.18652	-0.992737	
-0.161438	-3.79028	-1.17676	-1.00555	
-0.111389	-3.68225	-1.1557	-1.05896	
-0.126038	-3.59344	-1.14441	-1.18408	
-0.204468	-3.56293	-1.16364	-1.23657	
-0.336609	-3.56415	-1.20575	-1.08246	
-0.502014	-3.52234	-1.26801	-0.767822	
-0.673828	-3.45734	-1.3324	-0.525818	
-0.77179	-3.40149	-1.3736	-0.529785	
-0.74585	-3.39935	-1.35712	-0.700378	
-0.634155	-3.43628	-1.27686	-0.802002	
-0.528259	-3.46588	-1.1731	-0.712585	
-0.499268	-3.45062	-1.07605	-0.58197	
-0.525513	-3.38135	-0.994263	-0.541687	
-0.58197	-3.29315	-0.943604	-0.583496	
-0.667114	-3.24005	-0.895081	-0.601501	
-0.771484	-3.20984	-0.827332	-0.510864	
-0.875549	-3.21716	-0.751953	-0.491333	
-0.915527	-3.25775	-0.681152	-0.6073	
-0.86853	-3.3371	-0.660706	-0.802612	
-0.760193	-3.45581	-0.710754	-0.979614	
-0.678711	-3.53882	-0.830688	-1.0434	
-0.661926	-3.56384	-0.966797	-1.02631	
-0.711975	-3.4848	-1.05438	-0.995789	
-0.792847	-3.34198	-1.08398	-0.933838	
-0.866699	-3.22571	-1.07666	-0.838318	
-0.926208	-3.20892	-1.0611	-0.765686	
-0.986023	-3.30688	-1.05835	-0.910645	
-1.05042	-3.41522	-1.06476	-1.1908	
-1.09528	-3.46802	-1.0672	-1.3205	
-1.03424	-3.46252	-1.05103	-1.19904	
-0.864868	-3.46466	-1.01746	-0.953979	
-0.703125	-3.47046	-0.994263	-0.880737	
-0.661926	-3.45459	-0.967102	-0.941467	
-0.744629	-3.35358	-0.908813	-1.01074	
-0.861816	-3.21228	-0.841675	-1.01959	
-0.925903	-3.11493	-0.83252	-1.07697	
-0.921936	-3.12317	-0.904236	-1.26495	
-0.906372	-3.20892	-1.04889	-1.47247	
-0.907288	-3.28674	-1.21002	-1.56769	
-0.932312	-3.37402	-1.39221	-1.63879	
-0.950317	-3.42621	-1.53625	-1.63818	
-0.947571	-3.45001	-1.58997	-1.59943	
-0.924988	-3.36884	-1.54694	-1.50787	
-0.905762	-3.2132	-1.45813	-1.36536	
-0.895996	-3.07129	-1.42395	-1.25122	
-0.883179	-3.00568	-1.4624	-1.25244	
-0.868835	-2.97852	-1.53748	-1.40106	
-0.864563	-2.94464	-1.60004	-1.65894	
-0.885315	-2.84943	-1.62415	-1.80511	
-0.925598	-2.76581	-1.62781	-1.8457	
-0.951843	-2.724	-1.63116	-1.80725	
-0.924072	-2.72186	-1.65741	-1.61377	
-0.845337	-2.7652	-1.70868	-1.37939	
-0.760193	-2.836	-1.77307	-1.20605	
-0.729675	-2.96204	-1.80206	-1.16974	
-0.757446	-3.12744	-1.7868	-1.30707	
-0.799561	-3.29956	-1.76758	-1.54144	
-0.783081	-3.45306	-1.74866	-1.75079	
-0.682983	-3.58826	-1.71906	-1.89545	
-0.533752	-3.71094	-1.68243	-1.95587	
-0.411377	-3.80829	-1.65009	-1.98547	
-0.380249	-3.80249	-1.65894	-1.93787	
-0.428467	-3.66943	-1.71478	-1.83441	
-0.482788	-3.47443	-1.80725	-1.70746	
-0.476685	-3.29315	-1.89362	-1.59576	
-0.421753	-3.1427	-1.91132	-1.51062	
-0.39093	-3.00629	-1.84814	-1.44165	
-0.435181	-2.86346	-1.74347	-1.39496	
-0.521545	-2.74292	-1.64673	-1.44409	
-0.58197	-2.62085	-1.5976	-1.62689	
-0.611572	-2.50671	-1.57227	-1.75629	
-0.628662	-2.39899	-1.5744	-1.63208	
-0.645447	-2.36206	-1.58539	-1.38031	
-0.618286	-2.44019	-1.63513	-1.19812	
-0.513916	-2.5885	-1.6806	-1.25275	
-0.378723	-2.74109	-1.67999	-1.39099	
-0.257263	-2.79694	-1.63055	-1.50116	
-0.206604	-2.75909	-1.57166	-1.62445	
-0.204163	-2.69775	-1.56464	-1.75781	
-0.233154	-2.67426	-1.60645	-1.8811	
-0.261536	-2.66449	-1.66992	-1.8689	
-0.276489	-2.62573	-1.73065	-1.71997	
-0.272522	-2.57996	-1.76453	-1.55548	
-0.234375	-2.6062	-1.76147	-1.50055	
-0.195923	-2.72339	-1.74164	-1.49017	
-0.2005	-2.86713	-1.73065	-1.45508	
-0.285034	-2.98462	-1.71539	-1.43799	
-0.409241	-3.0307	-1.68579	-1.60675	
-0.494385	-3.01178	-1.63849	-1.73523	
-0.491943	-2.96356	-1.64856	-1.73676	
-0.411682	-2.89703	-1.73065	-1.46271	
-0.319824	-2.88147	-1.84692	-1.20544	
-0.275269	-2.97638	-1.90521	-1.15845	
-0.304565	-3.18146	-1.84692	-1.29974	
-0.375061	-3.37067	-1.67847	-1.39496	
-0.440369	-3.43384	-1.46393	-1.36993	
-0.509033	-3.36182	-1.30096	-1.29517	
-0.579529	-3.26202	-1.24451	-1.19446	
-0.63324	-3.25012	-1.27075	-1.1145	
-0.621948	-3.35632	-1.30829	-1.0788	
-0.566101	-3.53668	-1.29303	-1.01807	
-0.527344	-3.69263	-1.24237	-1.03119	
-0.541382	-3.77197	-1.19354	-1.07025	
-0.585327	-3.83545	-1.16852	-1.12213	
-0.609436	-3.90289	-1.12946	-1.1026	
-0.622559	-3.91846	-1.07269	-0.99762	
-0.648804	-3.7616	-1.03027	-0.872803	
-0.682068	-3.48541	-1.03729	-0.7724	
-0.690613	-3.24066	-1.11359	-0.671692	
-0.662537	-3.19611	-1.21002	-0.602722	
-0.639343	-3.34381	-1.26556	-0.668335	
-0.664978	-3.54797	-1.20178	-0.688782	
-0.741272	-3.69049	-1.01471	-0.644226	
-0.823059	-3.72437	-0.783081	-0.531311	
-0.912476	-3.64014	-0.587769	-0.478516	
-0.995789	-3.47351	-0.466003	-0.535889	
-1.08093	-3.3017	-0.420532	-0.631409	
-1.1496	-3.15643	-0.430603	-0.676575	
-1.19965	-3.03009	-0.489502	-0.602112	
-1.20575	-2.89368	-0.568848	-0.408936	
-1.14227	-2.75665	-0.629883	-0.238342	
-0.993347	-2.68768	-0.640259	-0.101013	
-0.805054	-2.77039	-0.614319	-0.0384521	
-0.643921	-3.01239	-0.584717	-0.0338745	
-0.555115	-3.34656	-0.561523	-0.0448608	
-0.52948	-3.65051	-0.529175	-0.102539	
-0.59021	-3.8269	-0.482178	-0.14801	
-0.725098	-3.86749	-0.464783	-0.124512	
-0.877686	-3.83789	-0.502625	-0.11261	
-0.957642	-3.77136	-0.596924	-0.18219	
-0.95459	-3.73871	-0.702209	-0.349121	
-0.958557	-3.73566	-0.782166	-0.488892	
-0.995178	-3.72742	-0.795593	-0.586853	
-1.07269	-3.68561	-0.715332	-0.603943	
-1.1322	-3.58887	-0.568542	-0.58075	
-1.16333	-3.5199	-0.42511	-0.509338	
-1.15814	-3.50708	-0.344543	-0.513	
-1.12427	-3.53912	-0.334778	-0.57373	
-1.09161	-3.56598	-0.332947	-0.576782	
-1.08032	-3.57513	-0.309143	-0.540161	
-1.05774	-3.59772	-0.245667	-0.4599	
-0.973206	-3.65906	-0.160522	-0.391846	
-0.820313	-3.78296	-0.09552	-0.394592	
-0.654907	-3.88336	-0.101624	-0.523682	
-0.559998	-3.88458	-0.15686	-0.696716	
-0.563965	-3.76068	-0.224609	-0.788879	
-0.621643	-3.63495	-0.281372	-0.774841	
-0.667419	-3.61755	-0.339355	-0.731201	
-0.672607	-3.69934	-0.395203	-0.710754	
-0.68573	-3.83209	-0.436096	-0.784912	
-0.732727	-3.93341	-0.407715	-0.815735	
-0.802917	-3.99261	-0.337524	-0.735779	
-0.869141	-4.00024	-0.287476	-0.58197	
-0.933838	-3.9444	-0.289307	-0.422058	
-1.00037	-3.85498	-0.350952	-0.397644	
-1.05042	-3.7854	-0.41687	-0.533447	
-1.05072	-3.79059	-0.461731	-0.730591	
-0.99884	-3.87451	-0.508118	-0.863647	
-0.887146	-3.98132	-0.545349	-0.87738	
-0.751648	-4.05609	-0.558777	-0.842896	
-0.612793	-4.0918	-0.500488	-0.875854	
-0.501404	-4.10095	-0.363159	-1.00372	
-0.489197	-4.07043	-0.216064	-1.15509	
-0.577087	-3.96851	-0.168762	-1.27563	
-0.72876	-3.80829	-0.263062	-1.27411	
-0.879822	-3.66394	-0.500183	-1.2262	
-1.00769	-3.61298	-0.78125	-1.22528	
-1.14014	-3.64655	-0.972595	-1.24207	
-1.26892	-3.64777	-1.01196	-1.24207	
-1.33331	-3.53882	-0.959778	-1.17371	
-1.33301	-3.35266	-0.953674	-1.21643	
-1.30737	-3.16101	-1.04309	-1.24084	
-1.29028	-2.98096	-1.13312	-1.17096	
-1.26862	-2.81616	-1.13495	-1.01288	
-1.20026	-2.67517	-1.06201	-0.817261	
-1.04218	-2.66724	-0.975647	-0.804138	
-0.787048	-2.85095	-0.899963	-0.921631	
-0.481262	-3.14972	-0.795593	-1.04736	
-0.241394	-3.40942	-0.667725	-1.15143	
-0.158691	-3.46375	-0.556335	-1.2442	
-0.218201	-3.26538	-0.507202	-1.31256	
-0.383606	-2.92145	-0.506287	-1.33698	
-0.606079	-2.58148	-0.539246	-1.30981	
-0.824585	-2.4054	-0.589294	-1.3678	
-0.97168	-2.3938	-0.656738	-1.51794	
-0.999451	-2.51068	-0.725403	-1.64948	
-0.965271	-2.6709	-0.778503	-1.74255	
-0.931702	-2.78015	-0.7901	-1.77002	
-0.896301	-2.79236	-0.747986	-1.74164	
-0.840759	-2.72125	-0.705566	-1.71875	
-0.76416	-2.59155	-0.697021	-1.6626	
-0.68634	-2.46948	-0.71991	-1.54572	
-0.612183	-2.37244	-0.748596	-1.40717	
-0.538025	-2.34344	-0.768433	-1.33484	
-0.481262	-2.37701	-0.79834	-1.39435	
-0.471497	-2.45117	-0.84198	-1.65863	
-0.484924	-2.54059	-0.870056	-1.90674	
-0.450134	-2.61292	-0.807495	-1.94214	
-0.33844	-2.57538	-0.639648	-1.68182	
-0.206909	-2.39258	-0.496521	-1.32507	
-0.141296	-2.1582	-0.496826	-1.2384	
-0.171814	-1.96625	-0.623779	-1.30035	
-0.267334	-1.86981	-0.727234	-1.42029	
-0.400696	-1.85272	-0.690918	-1.49414	
-0.539551	-1.90186	-0.5896	-1.52985	
-0.643005	-2.06726	-0.553894	-1.53687	
-0.679626	-2.28485	-0.621338	-1.50513	
-0.679626	-2.46735	-0.758972	-1.4856	
-0.679932	-2.52106	-0.892334	-1.50879	
-0.680237	-2.47833	-0.993347	-1.54694	
-0.663757	-2.4472	-1.04858	-1.5451	
-0.658569	-2.45453	-1.03577	-1.48865	
-0.678101	-2.48138	-0.972595	-1.4978	
-0.686035	-2.49908	-0.855408	-1.61438	
-0.640564	-2.46796	-0.694275	-1.74835	
-0.550842	-2.42004	-0.509338	-1.89728	
-0.463867	-2.32117	-0.336914	-2.00531	
-0.420227	-2.2168	-0.25116	-2.02484	
-0.436096	-2.1051	-0.310364	-1.97449	
-0.503845	-2.00867	-0.492554	-1.90155	
-0.639038	-1.89636	-0.712585	-1.77399	
-0.789795	-1.78711	-0.823059	-1.59088	
-0.925598	-1.71783	-0.802307	-1.47552	
-1.02783	-1.70837	-0.733032	-1.60889	
-1.07269	-1.75201	-0.732727	-2.01935	
-1.05286	-1.83411	-0.812073	-2.48138	
-0.969849	-1.95526	-0.954895	-2.77435	
-0.857849	-2.10175	-1.09283	-2.67365	
-0.782471	-2.16614	-1.21368	-2.29095	
-0.761719	-2.12524	-1.28906	-1.88751	
-0.788574	-2.01782	-1.31683	-1.68732	
-0.793457	-1.93115	-1.34399	-1.69861	
-0.74585	-1.91345	-1.40533	-1.82037	
-0.673523	-1.95648	-1.51154	-1.93909	
-0.631714	-1.99371	-1.6037	-2.01813	
-0.65094	-1.97052	-1.62231	-1.96838	
-0.677185	-1.83441	-1.53595	-1.84875	
-0.665283	-1.61987	-1.36322	-1.6983	
-0.632324	-1.37726	-1.18958	-1.57227	
-0.653687	-1.18622	-1.12091	-1.49597	
-0.754395	-1.12457	-1.1731	-1.45111	
-0.894165	-1.18744	-1.30463	-1.44012	
-0.98999	-1.39313	-1.44623	-1.5451	
-1.00433	-1.7392	-1.5387	-1.82526	
-0.940247	-2.10724	-1.54602	-2.19299	
-0.854492	-2.37	-1.4743	-2.50763	
-0.816956	-2.40662	-1.36353	-2.60986	
-0.869141	-2.25494	-1.29547	-2.5415	
-0.973816	-2.05261	-1.24908	-2.28882	
-1.09497	-1.90552	-1.18591	-2.01263	
-1.19629	-1.84723	-1.08795	-1.87805	
-1.25183	-1.82526	-1.01898	-1.86737	
-1.22803	-1.81824	-1.00586	-1.95709	
-1.09741	-1.79718	-1.01807	-2.10815	
-0.906067	-1.74011	-0.960999	-2.2287	
-0.715637	-1.6394	-0.79071	-2.29736	
-0.596008	-1.48224	-0.592041	-2.28149	
-0.575867	-1.29639	-0.507813	-2.17407	
-0.675049	-1.08215	-0.631409	-2.02942	
-0.856628	-0.877075	-0.927124	-1.91895	
-1.01685	-0.74646	-1.25488	-1.88629	
-1.06689	-0.77179	-1.49872	-1.93329	
-1.00952	-0.943909	-1.61804	-2.08832	
-0.944519	-1.18011	-1.66168	-2.3114	
-0.962524	-1.3736	-1.66931	-2.55035	
-1.0437	-1.51581	-1.64795	-2.76642	
-1.12732	-1.5921	-1.61713	-2.99408	
-1.14777	-1.56647	-1.57318	-2.96936	
-1.09253	-1.41296	-1.54236	-2.72461	
-0.968628	-1.18286	-1.48865	-2.38342	
-0.783386	-1.00403	-1.33698	-2.23083	
-0.56366	-0.897217	-1.05164	-2.30438	
-0.377197	-0.849304	-0.728455	-2.39838	
-0.290833	-0.791626	-0.533752	-2.40356	
-0.321045	-0.710449	-0.540466	-2.31598	
-0.427856	-0.6073	-0.687866	-2.20428	
-0.53894	-0.489502	-0.856628	-2.13287	
-0.611572	-0.413208	-0.964355	-2.02362	
-0.609131	-0.409546	-0.987854	-1.90063	
-0.523987	-0.469971	-0.954285	-1.80847	
-0.418396	-0.56427	-0.905762	-1.85608	
-0.358582	-0.587769	-0.848999	-2.02209	
-0.368958	-0.544128	-0.790405	-2.17407	
-0.413818	-0.462341	-0.75592	-2.19849	
-0.451355	-0.402222	-0.789795	-2.12769	
-0.481873	-0.379028	-0.867615	-2.08496	
-0.525818	-0.437317	-0.899963	-2.06696	
-0.567627	-0.528259	-0.751343	-2.01263	
-0.555725	-0.649414	-0.44342	-1.86005	
-0.479431	-0.758057	-0.0994873	-1.75903	
-0.358582	-0.866394	0.126343	-1.83746	
-0.286865	-0.965576	0.179749	-2.04529	
-0.319214	-1.02386	0.071106	-2.28333	
-0.417175	-0.980835	-0.128784	-2.19025	
-0.50293	-0.848999	-0.321045	-1.74438	
-0.501709	-0.722046	-0.414734	-1.09924	
-0.437317	-0.734253	-0.393372	-0.697937	
-0.393066	-0.906067	-0.312195	-0.740662	
-0.436401	-1.14655	-0.253601	-1.01868	
-0.574341	-1.30859	-0.251465	-1.31317	
-0.769958	-1.33759	-0.270691	-1.47369	
-0.954895	-1.25183	-0.289001	-1.50421	
-1.07025	-1.0968	-0.296021	-1.46606	
-1.07269	-0.956421	-0.299988	-1.3797	
-0.993347	-0.887451	-0.256042	-1.30829	
-0.877075	-0.888062	-0.0894165	-1.24634	
-0.769653	-0.979309	0.17395	-1.25488	
-0.661011	-1.16699	0.432434	-1.31775	
-0.568237	-1.42853	0.552979	-1.37268	
-0.511169	-1.67328	0.540161	-1.26373	
-0.498352	-1.74866	0.476379	-1.04767	
-0.517273	-1.64642	0.436401	-0.796814	
-0.543518	-1.49231	0.454407	-0.531006	
-0.572205	-1.4386	0.462646	-0.2948	
-0.610046	-1.53473	0.414429	-0.18158	
-0.690308	-1.69342	0.269775	-0.306396	
-0.814819	-1.85699	0.0723267	-0.565796	
-0.970154	-1.99524	-0.0900269	-0.746155	
-1.11725	-2.1228	-0.180664	-0.739136	
-1.23749	-2.24792	-0.236206	-0.765076	
-1.34064	-2.30438	-0.277405	-0.953674	
-1.44104	-2.24518	-0.270386	-1.18469	
-1.51398	-2.099	-0.211182	-1.32965	
-1.57104	-1.98517	-0.177612	-1.39923	
-1.59576	-2.0108	-0.217896	-1.43219	
-1.58447	-2.15179	-0.307312	-1.49597	
-1.52649	-2.34985	-0.365295	-1.67389	
-1.4267	-2.54059	-0.350647	-1.77856	
-1.33942	-2.6416	-0.289001	-1.77734	
-1.28265	-2.54669	-0.239258	-1.61285	
-1.25916	-2.31628	-0.227051	-1.36353	
-1.21368	-2.03094	-0.234985	-1.09192	
-1.13312	-1.84753	-0.233459	-0.899353	
-1.06659	-1.79871	-0.260315	-0.795288	
-1.09161	-1.86584	-0.359802	-0.787659	
-1.23199	-2.02881	-0.514832	-0.893555	
-1.38214	-2.21039	-0.637817	-1.0907	
-1.40747	-2.31476	-0.624084	-1.32904	
-1.29028	-2.29401	-0.491638	-1.44104	
-1.13556	-2.1936	-0.367432	-1.37787	
-1.08551	-2.11761	-0.355225	-1.2146	
-1.14868	-2.10205	-0.446777	-1.08093	
-1.21918	-2.14294	-0.531006	-1.08246	
-1.21613	-2.19666	-0.542603	-1.19995	
-1.12915	-2.27234	-0.521545	-1.362	
-1.04309	-2.35077	-0.512085	-1.4566	
-0.979919	-2.43347	-0.502319	-1.51031	
-0.908508	-2.46918	-0.455322	-1.42761	
-0.78064	-2.40143	-0.374146	-1.18988	
-0.627747	-2.21558	-0.325623	-0.844727	
-0.558777	-1.98303	-0.370789	-0.541992	
-0.629883	-1.77917	-0.471497	-0.427551	
-0.802917	-1.716	-0.541077	-0.568542	
-1.00006	-1.76147	-0.52948	-0.888062	
-1.16302	-1.90369	-0.470276	-1.34216	
-1.25549	-2.04254	-0.437622	-1.59393	
-1.27563	-2.09015	-0.460205	-1.59119	
-1.24786	-2.0108	-0.506592	-1.38367	
-1.21429	-1.86646	-0.527039	-1.19385	
-1.18652	-1.77277	-0.510559	-1.2616	
-1.1261	-1.83228	-0.441895	-1.4798	
-0.99884	-1.98792	-0.347595	-1.65955	
-0.84259	-2.13501	-0.253906	-1.71814	
-0.730896	-2.18506	-0.190125	-1.77826	
-0.68512	-2.11609	-0.152588	-1.80176	
-0.643005	-2.00714	-0.105286	-1.75964	
-0.563965	-1.94427	-0.088501	-1.59271	
-0.489197	-1.91833	-0.153809	-1.41113	
-0.519409	-1.82739	-0.307617	-1.26221	
-0.681458	-1.57898	-0.498657	-1.18561	
-0.922546	-1.27106	-0.640869	-1.1972	
-1.14502	-1.07971	-0.725403	-1.28357	
-1.26282	-1.10474	-0.776367	-1.3678	
-1.24115	-1.24634	-0.805054	-1.39313	
-1.13525	-1.3205	-0.797424	-1.29761	
-1.05347	-1.26678	-0.761414	-1.17279	
-1.06018	-1.18286	-0.744934	-1.14868	
-1.11725	-1.16882	-0.774841	-1.19812	
-1.16974	-1.23932	-0.834351	-1.29669	
-1.17889	-1.33606	-0.883484	-1.38062	
-1.13525	-1.45294	-0.894775	-1.47217	
-1.01624	-1.54297	-0.86792	-1.6037	
-0.806885	-1.59454	-0.812683	-1.68365	
-0.58075	-1.57471	-0.756531	-1.69586	
-0.439453	-1.45966	-0.735779	-1.60706	
-0.439758	-1.27899	-0.74707	-1.47675	
-0.559387	-1.01929	-0.809326	-1.47247	
-0.72876	-0.742188	-0.882874	-1.48346	
-0.90332	-0.556641	-0.928345	-1.45813	
-1.06262	-0.54657	-0.917053	-1.43341	
-1.16638	-0.71106	-0.851746	-1.45355	
-1.19904	-0.93811	-0.756531	-1.53107	
-1.16089	-1.14014	-0.670776	-1.61438	
-1.10382	-1.28113	-0.624695	-1.68243	
-1.06873	-1.39404	-0.624084	-1.84418	
-1.03271	-1.51642	-0.621338	-1.95099	
-1.00983	-1.66779	-0.585632	-2.04163	
-1.00525	-1.82739	-0.541687	-1.97998	
-1.01776	-1.96289	-0.535278	-1.86523	
-1.01318	-2.04193	-0.565491	-1.80359	
-0.947266	-2.08374	-0.565186	-1.8512	
-0.863953	-2.07794	-0.50293	-1.96503	
-0.84137	-2.00531	-0.406494	-2.04071	
-0.901794	-1.85699	-0.332031	-2.02545	
-1.00494	-1.65894	-0.301208	-1.92993	
-1.11176	-1.4679	-0.325317	-1.81702	
-1.21002	-1.33728	-0.415955	-1.74744	
-1.31012	-1.32019	-0.54657	-1.7514	
-1.37177	-1.40991	-0.640564	-1.75415	
-1.34186	-1.52161	-0.660095	-1.78894	
-1.22894	-1.56342	-0.637512	-1.86737	
-1.10443	-1.50299	-0.62561	-1.95648	
-1.04401	-1.37512	-0.631714	-2.09412	
-1.08307	-1.31409	-0.648193	-2.16187	
-1.1673	-1.3266	-0.672302	-2.10999	
-1.21765	-1.39587	-0.736084	-1.97113	
-1.18622	-1.49353	-0.851746	-1.85516	
-1.0791	-1.63483	-0.983582	-1.83777	
-0.967712	-1.80084	-1.0672	-1.84143	
-0.915833	-1.92291	-1.07727	-1.85333	
-0.950623	-1.8692	-1.03424	-1.82373	
-1.04126	-1.62567	-0.985718	-1.70715	
-1.11481	-1.3031	-0.939026	-1.49811	
-1.12091	-1.03058	-0.90332	-1.31134	
-1.08826	-0.843506	-0.873108	-1.23627	
-1.10321	-0.726013	-0.884094	-1.2738	
-1.21918	-0.717468	-0.948792	-1.40839	
-1.38275	-0.831909	-1.0321	-1.60797	
-1.50848	-1.01135	-1.0907	-1.76331	
-1.55914	-1.1499	-1.0849	-1.85028	
-1.55182	-1.19141	-1.04523	-1.84814	
-1.51337	-1.1264	-0.984497	-1.7926	
-1.45355	-1.03424	-0.918884	-1.7926	
-1.3678	-0.976257	-0.854492	-1.87988	
-1.23627	-1.00067	-0.7901	-2.00714	
-1.05774	-1.11572	-0.753174	-2.1106	
-0.871582	-1.27869	-0.749207	-2.11548	
-0.743103	-1.43127	-0.812683	-2.00867	
-0.712585	-1.4978	-0.925293	-1.82465	
-0.760803	-1.44836	-1.08307	-1.67877	
-0.83252	-1.29639	-1.22559	-1.57806	
-0.885315	-1.12244	-1.3028	-1.492	
-0.891418	-0.994873	-1.29395	-1.4151	
-0.890808	-0.967712	-1.24359	-1.44409	
-0.903931	-1.00739	-1.24115	-1.54266	
-0.950317	-1.05804	-1.31287	-1.651	
-1.0025	-1.05286	-1.38977	-1.73004	
-1.04034	-1.00159	-1.38855	-1.83716	
-1.05743	-0.943909	-1.31104	-1.95404	
-1.05988	-0.917969	-1.27106	-2.01538	
-1.03424	-0.950623	-1.33911	-1.98822	
-0.949402	-1.06323	-1.49323	-2.03552	
-0.788574	-1.22498	-1.59241	-2.19055	
-0.608826	-1.44043	-1.56372	-2.53906	
-0.510864	-1.65497	-1.41235	-2.81921	
-0.557556	-1.7688	-1.22681	-2.87262	
-0.71167	-1.75232	-1.09985	-2.71667	
-0.857239	-1.61621	-1.04187	-2.46826	
-0.935364	-1.43036	-1.02661	-2.33459	
-0.966492	-1.24115	-1.02478	-2.31323	
-1.04126	-1.04675	-1.03302	-2.33032	
-1.18958	-0.871887	-1.05865	-2.36481	
-1.3913	-0.750427	-1.0907	-2.44202	
-1.57501	-0.682678	-1.10626	-2.54303	
-1.70654	-0.642395	-1.09406	-2.49329	
-1.74866	-0.618591	-1.03729	-2.36359	
-1.70288	-0.596619	-0.956421	-2.24915	
-1.59271	-0.567627	-0.883789	-2.146	
-1.46423	-0.500183	-0.873413	-2.00165	
-1.34521	-0.470276	-0.942383	-1.86737	
-1.22162	-0.557251	-1.02173	-1.90979	
-1.07208	-0.78186	-1.03271	-2.14691	
-0.921936	-1.02875	-0.927429	-2.39899	
-0.840149	-1.20819	-0.744019	-2.52716	
-0.861511	-1.25153	-0.541992	-2.51221	
-0.960999	-1.15051	-0.451355	-2.42523	
-1.07697	-0.960083	-0.529785	-2.31934	
-1.19202	-0.705872	-0.702515	-2.18109	
-1.30096	-0.453186	-0.791931	-2.03125	
-1.38611	-0.218201	-0.719604	-1.94885	
-1.43463	-0.0317383	-0.524597	-1.9696	
-1.45508	0.0561523	-0.315247	-2.00592	
-1.4859	0.0485229	-0.160828	-2.02393	
-1.5387	-0.0326538	-0.0469971	-1.92383	
-1.57288	-0.0927734	-0.0134277	-1.74866	
-1.57532	-0.0921631	-0.0402832	-1.55548	
-1.53168	-0.0897217	-0.0970459	-1.44379	
-1.44928	-0.148315	-0.140381	-1.49231	
-1.33301	-0.325317	-0.115051	-1.63971	
-1.20483	-0.561218	-0.0613403	-1.69006	
-1.08124	-0.827026	-0.00732422	-1.68152	
-1.026	-1.0907	0.0378418	-1.59851	
-1.06293	-1.32172	0.0836182	-1.58875	
-1.16364	-1.42059	0.116882	-1.75629	
-1.2561	-1.31531	0.127563	-1.9104	
-1.30157	-1.04858	0.115662	-1.98822	
-1.35529	-0.732117	0.107422	-1.95313	
-1.45264	-0.439148	0.100098	-1.74652	
-1.52802	-0.16571	0.121765	-1.48895	
-1.51123	0.0598145	0.213623	-1.2677	
-1.42761	0.197754	0.378113	-1.24695	
-1.37054	0.275879	0.560913	-1.41144	
-1.43219	0.319824	0.661621	-1.6098	
-1.56708	0.319824	0.6427	-1.79047	
-1.65497	0.214233	0.532837	-1.94885	
-1.61926	-0.00640869	0.384521	-2.18811	
-1.46973	-0.222778	0.280457	-2.41974	
-1.29791	-0.35614	0.258484	-2.57385	
-1.18652	-0.340576	0.309753	-2.49786	
-1.16425	-0.244751	0.341187	-2.27875	
-1.20697	-0.15625	0.265808	-2.10205	
-1.27258	-0.150452	0.115967	-2.01233	
-1.30707	-0.206299	-0.0311279	-2.01233	
-1.27594	-0.236816	-0.10376	-2.07977	
-1.20117	-0.176392	-0.0973511	-2.16187	
-1.15906	-0.0564575	-0.0646973	-2.26929	
-1.21399	-0.00732422	-0.0537109	-2.33429	
-1.3559	-0.00823975	-0.0326538	-2.258	
-1.49994	0.038147	0.0646973	-2.08557	
-1.56616	0.154419	0.250244	-1.9754	
-1.5506	0.278931	0.449829	-1.93146	
-1.48956	0.330811	0.546265	-1.85272	
-1.45691	0.290833	0.48584	-1.63879	
-1.46118	0.17395	0.34668	-1.54175	
-1.48346	-0.0341797	0.256958	-1.60889	
-1.52618	-0.315247	0.25116	-1.79565	
-1.54968	-0.621338	0.308228	-1.95435	
-1.55365	-0.888062	0.351868	-1.99036	
-1.52954	-1.03882	0.373535	-1.99524	
-1.48132	-1.02264	0.423584	-1.90338	
-1.43188	-0.912781	0.484314	-1.77734	
-1.37421	-0.829163	0.513	-1.62933	
-1.29028	-0.830688	0.497131	-1.52679	
-1.20667	-0.831909	0.424805	-1.47675	
-1.14716	-0.780945	0.332642	-1.44836	
-1.14044	-0.688171	0.255127	-1.41266	
-1.19873	-0.615845	0.231628	-1.38275	
-1.31073	-0.597839	0.269165	-1.40228	
-1.44073	-0.577698	0.364075	-1.47247	
-1.47552	-0.588074	0.477905	-1.65649	
-1.34216	-0.621948	0.584412	-1.90613	
-1.09253	-0.682373	0.672607	-2.22229	
-0.85144	-0.769043	0.671692	-2.43774	
-0.758667	-0.817261	0.549011	-2.47498	
-0.870056	-0.830994	0.388489	-2.33521	
-1.13373	-0.874023	0.328674	-2.1933	
-1.40747	-0.965576	0.408936	-2.15973	
-1.54907	-1.08978	0.528564	-2.29279	
-1.49536	-1.16852	0.592957	-2.45026	
-1.29883	-1.19385	0.609436	-2.40631	
-1.08551	-1.17218	0.637207	-2.16766	
-0.968628	-1.11298	0.675964	-1.80511	
-0.996094	-1.008	0.690918	-1.57593	
-1.15173	-0.909729	0.661926	-1.65802	
-1.32782	-0.865784	0.632019	-1.92596	
-1.42761	-0.874023	0.658264	-2.12738	
-1.40686	-0.932617	0.735779	-2.20642	
-1.28296	-1.02356	0.809021	-2.16766	
-1.14838	-1.10168	0.823364	-2.11151	
-1.10474	-1.10229	0.78064	-2.11121	
-1.18988	-1.05682	0.693054	-2.17102	
-1.34613	-0.982666	0.59021	-2.23267	
-1.4743	-0.941162	0.526733	-2.28729	
-1.52557	-0.946045	0.520935	-2.4231	
-1.49231	-0.973816	0.575256	-2.40967	
-1.3913	-1.04462	0.637512	-2.2522	
-1.25885	-1.13037	0.669556	-1.9339	
-1.16943	-1.19873	0.65094	-1.74225	
-1.15204	-1.19232	0.5896	-1.71814	
-1.17584	-1.11176	0.504761	-1.78009	
-1.20514	-1.01715	0.45105	-1.81305	
-1.23291	-0.923157	0.463562	-1.78528	
-1.30066	-0.796204	0.537415	-1.77612	
-1.37665	-0.643616	0.605469	-1.80511	
-1.39679	-0.544739	0.644836	-1.77399	
-1.31561	-0.602417	0.65094	-1.70776	
-1.15997	-0.820007	0.663147	-1.66718	
-1.01044	-1.06903	0.690002	-1.75446	
-0.931396	-1.23657	0.706177	-1.87805	
-0.948792	-1.29242	0.706177	-1.93909	
-1.03241	-1.24542	0.732422	-1.87378	
-1.13892	-1.15479	0.816956	-1.71204	
-1.24725	-1.10168	0.95459	-1.58447	
-1.33026	-1.14899	1.07056	-1.51367	
-1.36353	-1.31622	1.14044	-1.57318	
-1.31042	-1.52069	1.16272	-1.66718	
-1.19659	-1.74194	1.14594	-1.698	
-1.08612	-1.9809	1.11176	-1.65405	
-1.0437	-2.15698	1.0733	-1.60034	
-1.09436	-2.17377	1.04156	-1.60553	
-1.20789	-2.00836	0.964966	-1.65527	
-1.33545	-1.745	0.847778	-1.61346	
-1.42548	-1.49902	0.742798	-1.47034	
-1.45294	-1.3562	0.723572	-1.36169	
-1.42609	-1.32416	0.789795	-1.34766	
-1.36475	-1.36475	0.910034	-1.32477	
-1.32233	-1.4386	1.02356	-1.34125	
-1.3028	-1.49078	1.12305	-1.41205	
-1.31226	-1.47247	1.21735	-1.4975	
-1.31775	-1.46881	1.28723	-1.61285	
-1.32446	-1.54053	1.33179	-1.73645	
-1.34247	-1.71143	1.36292	-1.89758	
-1.39008	-1.92993	1.39008	-2.0871	
-1.41846	-2.11365	1.4032	-2.22961	
-1.4035	-2.24854	1.39832	-2.28912	
-1.32996	-2.37518	1.43951	-2.23755	
-1.21735	-2.47528	1.54449	-2.16156	
-1.11603	-2.55554	1.65558	-2.10236	
-1.07178	-2.59033	1.66809	-2.11304	
-1.09314	-2.5885	1.55212	-2.15027	
-1.18835	-2.5415	1.36932	-2.16614	
-1.32629	-2.43744	1.19629	-2.09381	
-1.47156	-2.23541	1.0498	-1.91711	
-1.58447	-1.93054	0.932312	-1.8161	
-1.59485	-1.64948	0.887146	-1.83746	
-1.47095	-1.52496	0.910339	-1.97693	
-1.28021	-1.64063	0.957947	-2.15942	
-1.13739	-1.93848	0.977478	-2.33887	
-1.10962	-2.26959	0.989075	-2.42126	
-1.17554	-2.4881	1.02905	-2.48779	
-1.26587	-2.54944	1.05042	-2.52686	
-1.33698	-2.46338	1.01044	-2.53998	
-1.35895	-2.29645	0.925293	-2.5412	
-1.29181	-2.19727	0.866699	-2.6004	
-1.13281	-2.25006	0.875244	-2.59247	
-0.939636	-2.43073	0.890808	-2.53845	
-0.774231	-2.65594	0.84137	-2.44202	
-0.724792	-2.79907	0.715637	-2.37671	
-0.83374	-2.78778	0.589294	-2.3996	
-1.05927	-2.60468	0.491638	-2.40845	
-1.31165	-2.22351	0.427856	-2.34192	
-1.47827	-1.74225	0.402832	-2.16644	
-1.52313	-1.31714	0.41687	-2.08405	
-1.52802	-1.06689	0.465698	-2.09015	
-1.55792	-1.04156	0.50415	-2.06757	
-1.63208	-1.21521	0.466309	-2.03247	
-1.71234	-1.48102	0.354004	-2.11304	
-1.76208	-1.73248	0.222778	-2.46552	
-1.76483	-1.88721	0.158386	-2.85736	
-1.71295	-1.93115	0.214233	-3.09875	
-1.59393	-1.95313	0.340576	-3.19733	
-1.46637	-1.96136	0.426941	-3.20709	
-1.39038	-1.97937	0.449829	-3.19611	
-1.35376	-2.03186	0.456848	-3.125	
-1.30432	-2.164	0.463867	-2.92023	
-1.26068	-2.3468	0.420227	-2.64954	
-1.28174	-2.46368	0.276184	-2.37396	
-1.37268	-2.38129	0.123596	-2.22626	
-1.47095	-2.05872	0.0918579	-2.20062	
-1.54541	-1.60065	0.195007	-2.12738	
-1.62231	-1.18622	0.305176	-1.93665	
-1.72119	-0.977783	0.323792	-1.65741	
-1.78711	-0.968933	0.270691	-1.46484	
-1.77704	-1.09955	0.227661	-1.46454	
-1.72821	-1.25824	0.265198	-1.63483	
-1.68121	-1.42944	0.429077	-1.85272	
-1.64276	-1.61346	0.702515	-2.02637	
-1.58569	-1.77338	0.979004	-2.16278	
-1.49872	-1.86432	1.11877	-2.20886	
-1.41571	-1.8985	1.06842	-2.22595	
-1.36322	-1.94214	0.904236	-2.20795	
-1.33118	-2.03979	0.770264	-2.0993	
-1.3147	-2.13867	0.71991	-1.88843	
-1.28906	-2.24701	0.724792	-1.67328	
-1.2619	-2.34711	0.752563	-1.53564	
-1.25122	-2.39227	0.807495	-1.52252	
-1.28235	-2.29492	0.865784	-1.56738	
-1.38153	-2.00317	0.901794	-1.52924	
-1.51093	-1.58173	0.870972	-1.34247	
-1.62994	-1.18134	0.797729	-1.08551	
-1.73737	-0.889587	0.691528	-0.875244	
-1.85425	-0.732727	0.588684	-0.793457	
-1.9873	-0.708008	0.549927	-0.830078	
-2.0929	-0.812988	0.653076	-1.02142	
-2.14935	-0.97229	0.903625	-1.34888	
-2.18079	-1.13129	1.15936	-1.72394	
-2.19971	-1.25275	1.26709	-2.06207	
-2.19879	-1.37085	1.16364	-2.18628	
-2.15546	-1.4975	0.909729	-2.15942	
-2.07367	-1.5979	0.644226	-2.05048	
-1.98212	-1.63605	0.415955	-1.90643	
-1.90765	-1.65344	0.246277	-1.77124	
-1.85516	-1.67328	0.134583	-1.62811	
-1.77856	-1.7276	0.0723267	-1.61133	
-1.68182	-1.78955	0.06073	-1.64215	
-1.58234	-1.8158	0.0805664	-1.60919	
-1.539	-1.77643	0.109863	-1.51581	
-1.57593	-1.64703	0.134583	-1.43677	
-1.64764	-1.44196	0.169678	-1.37817	
-1.75079	-1.21094	0.196228	-1.3382	
-1.88385	-1.0257	0.237427	-1.28113	
-2.02362	-0.922241	0.346985	-1.26648	
-2.10815	-0.934753	0.519409	-1.32813	
-2.09686	-1.05255	0.663757	-1.52161	
-2.01202	-1.28326	0.657654	-1.79565	
-1.90918	-1.54663	0.480347	-2.07458	
-1.78802	-1.76208	0.235596	-2.25708	
-1.66748	-1.88446	0.0204468	-2.29797	
-1.58081	-1.97723	-0.135193	-2.2934	
-1.54694	-2.07947	-0.220337	-2.23114	
-1.57074	-2.19971	-0.239563	-2.10327	
-1.60645	-2.30804	-0.195007	-1.88141	
-1.6217	-2.37335	-0.136108	-1.64001	
-1.61591	-2.42859	-0.11261	-1.50421	
-1.59576	-2.4704	-0.1297	-1.47034	
-1.59821	-2.50244	-0.174561	-1.4859	
-1.64459	-2.49603	-0.197449	-1.48407	
-1.69769	-2.41852	-0.14679	-1.4801	
-1.73065	-2.22778	0.0408936	-1.41388	
-1.75446	-1.97144	0.342712	-1.36688	
-1.80542	-1.8045	0.643005	-1.44318	
-1.86798	-1.85364	0.812988	-1.52863	
-1.90826	-2.08832	0.803833	-1.60583	
-1.89697	-2.39807	0.6604	-1.67358	
-1.84631	-2.65076	0.471497	-1.78772	
-1.79108	-2.81403	0.309448	-1.90063	
-1.74133	-2.95898	0.19043	-1.90674	
-1.71478	-3.1189	0.0881958	-1.80145	
-1.69403	-3.2489	0.00366211	-1.66626	
-1.64276	-3.32275	-0.0592041	-1.62659	
-1.54846	-3.28888	-0.106506	-1.74744	
-1.43799	-3.19702	-0.196228	-1.79443	
-1.39069	-3.11249	-0.328064	-1.67358	
-1.42395	-3.03253	-0.443115	-1.50391	
-1.50848	-2.96082	-0.457458	-1.40137	
-1.59576	-2.85248	-0.336609	-1.40747	
-1.67572	-2.71729	-0.121155	-1.44592	
-1.7453	-2.58698	0.148621	-1.37848	
-1.82739	-2.46338	0.414124	-1.24817	
-1.89728	-2.36298	0.577393	-1.16302	
-1.93695	-2.32269	0.583191	-1.23352	
-1.91193	-2.36115	0.499268	-1.45874	
-1.82953	-2.42859	0.438232	-1.71539	
-1.71539	-2.51953	0.449829	-1.87775	
-1.58478	-2.6178	0.469971	-1.90521	
-1.43372	-2.771	0.405884	-1.83838	
-1.28082	-2.93396	0.23468	-1.77094	
-1.18042	-3.02124	0.00732422	-1.75079	
-1.16302	-3.02826	-0.202026	-1.77979	
-1.20941	-3.01208	-0.317688	-1.8512	
-1.28998	-3.00995	-0.331726	-1.9281	
-1.37787	-3.00751	-0.253296	-1.92017	
-1.42975	-2.95013	-0.140686	-1.80328	
-1.40289	-2.87689	-0.0512695	-1.70197	
-1.32172	-2.81769	-0.0106812	-1.65924	
-1.25397	-2.75787	0.00946045	-1.67908	
-1.25549	-2.68646	0.0256348	-1.71844	
-1.30981	-2.65411	0.0146484	-1.67542	
-1.36841	-2.65656	-0.0289917	-1.63361	
-1.40594	-2.72308	-0.0738525	-1.64276	
-1.40717	-2.81311	-0.0704956	-1.80573	
-1.40411	-2.88574	0.0125122	-2.01996	
-1.38184	-2.91656	0.104675	-2.09473	
-1.29974	-2.82898	0.142212	-2.00897	
-1.14349	-2.62573	0.109863	-1.89209	
-0.946655	-2.41333	0.0570679	-1.78497	
-0.798645	-2.31323	0.0241089	-1.67053	
-0.748596	-2.35352	0.0115967	-1.52893	
-0.770264	-2.41638	-0.00274658	-1.40991	
-0.829163	-2.39594	-0.0396729	-1.40717	
-0.914307	-2.30499	-0.093689	-1.57104	
-1.00555	-2.20154	-0.117798	-1.67358	
-1.10443	-2.08801	-0.12146	-1.69708	
-1.18317	-1.88599	-0.136719	-1.61255	
-1.22742	-1.65924	-0.183411	-1.53992	
-1.20941	-1.47888	-0.232849	-1.56311	
-1.09497	-1.37787	-0.230408	-1.66382	
-0.947571	-1.34399	-0.161133	-1.7395	
-0.838623	-1.31287	-0.0570679	-1.72882	
-0.819702	-1.32568	0.0262451	-1.68945	
-0.870361	-1.4151	0.0479126	-1.68671	
-0.939636	-1.55579	0.0302124	-1.72424	
-0.987854	-1.70135	0.0610352	-1.85944	
-1.00464	-1.79779	0.182495	-1.98822	
-0.98114	-1.87408	0.330811	-2.04712	
-0.935974	-1.90308	0.392456	-1.98059	
-0.880432	-1.89728	0.325317	-1.77124	
-0.823364	-1.88263	0.203552	-1.59821	
-0.796204	-1.90887	0.101624	-1.51367	
-0.816345	-2.04651	0.0402832	-1.59393	
-0.904236	-2.19727	0.027771	-1.84174	
-1.01715	-2.26624	0.0747681	-2.01935	
-1.11877	-2.20459	0.178528	-2.03003	
-1.18683	-2.08282	0.28595	-1.91467	
-1.20758	-1.99677	0.374146	-1.81274	
-1.17065	-1.95892	0.438232	-1.78711	
-1.10748	-1.94	0.483704	-1.78955	
-1.09833	-1.8924	0.487366	-1.78619	
-1.21704	-1.7926	0.465393	-1.82556	
-1.43768	-1.72333	0.484009	-1.97998	
-1.64642	-1.78345	0.598145	-2.2644	
-1.73798	-2.00653	0.74646	-2.56836	
-1.68091	-2.25098	0.819702	-2.64984	
-1.52527	-2.38098	0.715942	-2.55035	
-1.32568	-2.33643	0.460205	-2.37946	
-1.11908	-2.16217	0.170288	-2.20642	
-0.944519	-1.99402	-0.0534058	-2.10449	
-0.828552	-1.87103	-0.15686	-1.97601	
-0.762939	-1.85913	-0.155334	-1.85394	
-0.704651	-1.93176	-0.0769043	-1.83655	
-0.628357	-2.01263	0.0445557	-1.90826	
-0.576477	-1.98914	0.177612	-1.98059	
-0.606689	-1.83319	0.303955	-1.94061	
-0.752563	-1.60217	0.380859	-1.83624	
-0.963135	-1.35956	0.379944	-1.75751	
-1.12396	-1.20911	0.314941	-1.77307	
-1.15417	-1.1676	0.263367	-1.88599	
-1.04095	-1.24969	0.2771	-2.08008	
-0.887451	-1.39801	0.366211	-2.24213	
-0.7901	-1.56097	0.452576	-2.26563	
-0.784912	-1.71692	0.462341	-2.21893	
-0.837097	-1.84265	0.406189	-2.22748	
-0.87616	-1.90643	0.318298	-2.36694	
-0.87616	-1.8689	0.249023	-2.53662	
-0.845642	-1.75446	0.174255	-2.54791	
-0.819702	-1.64917	0.0665283	-2.37579	
-0.80719	-1.62842	-0.0741577	-2.19849	
-0.773621	-1.72882	-0.214539	-2.13867	
-0.722046	-1.87164	-0.297546	-2.1225	
-0.71228	-1.96594	-0.297241	-2.09076	
-0.78949	-1.97113	-0.265808	-2.04437	
-0.913696	-1.89758	-0.251465	-1.97388	
-1.00983	-1.78375	-0.278015	-1.92841	
-1.04218	-1.67084	-0.280151	-1.95892	
-1.05255	-1.58478	-0.172424	-2.09229	
-1.06445	-1.53534	0.0650024	-2.27081	
-1.05194	-1.5448	0.317993	-2.41364	
-1.00708	-1.64246	0.448914	-2.44476	
-0.961304	-1.81854	0.379944	-2.40387	
-0.933838	-2.07428	0.163574	-2.26837	
-0.911255	-2.28943	-0.0579834	-2.02972	
-0.887146	-2.36755	-0.192261	-1.74133	
-0.878906	-2.29828	-0.207825	-1.47888	
-0.896912	-2.17438	-0.142212	-1.3446	
-0.92041	-2.11304	-0.0595093	-1.32416	
-0.881958	-2.15179	0.0170898	-1.28693	
-0.810852	-2.25372	0.0769043	-1.24359	
-0.794373	-2.40631	0.118408	-1.22284	
-0.917053	-2.56256	0.112305	-1.27197	
-1.17035	-2.60956	0.0592041	-1.3327	
-1.42975	-2.55249	-0.0170898	-1.44226	
-1.586	-2.43835	-0.0131226	-1.4624	
-1.61011	-2.35138	0.129089	-1.4093	
-1.55609	-2.2879	0.372009	-1.35345	
-1.48773	-2.21741	0.619202	-1.36322	
-1.4209	-2.18994	0.733032	-1.43799	
-1.37787	-2.25861	0.652161	-1.43982	
-1.35956	-2.45392	0.423584	-1.3382	
-1.36627	-2.68646	0.182495	-1.11023	
-1.37604	-2.88025	0.043335	-0.888672	
-1.35376	-3.01147	0.0164795	-0.8078	
-1.29608	-3.07739	0.0674438	-0.85022	
-1.20667	-3.08899	0.145874	-0.959473	
-1.09314	-3.10425	0.195313	-1.06567	
-0.973816	-3.13141	0.163574	-1.07391	
-0.870361	-3.20557	0.0939941	-0.984192	
-0.815125	-3.33221	0.0689697	-0.868225	
-0.83252	-3.47137	0.163879	-0.864258	
-0.908813	-3.56415	0.354309	-0.947876	
-1.01532	-3.56049	0.542908	-1.01654	
-1.11511	-3.48511	0.664368	-1.03363	
-1.18927	-3.42499	0.69519	-1.03699	
-1.2442	-3.44177	0.645142	-1.10596	
-1.26099	-3.5025	0.549011	-1.2323	
-1.23779	-3.5556	0.432129	-1.37024	
-1.18958	-3.57574	0.341187	-1.37451	
-1.16608	-3.58612	0.288391	-1.25366	
-1.18408	-3.5965	0.265503	-1.05164	
-1.20026	-3.62762	0.269775	-0.896606	
-1.16302	-3.66913	0.293579	-0.871887	
-1.04858	-3.70392	0.305176	-0.914612	
-0.900879	-3.68774	0.255432	-0.940247	
-0.777588	-3.59467	0.168457	-0.9021	
-0.723877	-3.49731	0.0799561	-0.87738	
-0.772095	-3.46283	0.065918	-0.868835	
-0.899353	-3.42377	0.159912	-0.830078	
-1.04919	-3.3548	0.340576	-0.838623	
-1.16943	-3.24432	0.52948	-0.923462	
-1.22955	-3.12286	0.65918	-0.994568	
-1.24084	-3.00018	0.675659	-0.989685	
-1.23322	-2.89673	0.567017	-0.966187	
-1.19598	-2.78412	0.39978	-0.963745	
-1.17126	-2.63763	0.220337	-1.0733	
-1.17249	-2.45697	0.0823975	-1.2149	
-1.19934	-2.29004	0.0369263	-1.24939	
-1.23138	-2.20306	0.0744629	-1.13525	
-1.19751	-2.258	0.178528	-0.951233	
-1.09711	-2.40631	0.273438	-0.848999	
-1.01166	-2.51556	0.305481	-0.859375	
-1.02448	-2.53082	0.254822	-0.940247	
-1.17859	-2.40387	0.154724	-1.04065	
-1.38	-2.26074	0.110779	-1.08643	
-1.5271	-2.14844	0.161438	-1.15753	
-1.59424	-2.11578	0.299377	-1.18958	
-1.59729	-2.1048	0.445862	-1.16577	
-1.54785	-2.06635	0.526123	-1.13129	
-1.45599	-1.96014	0.513611	-1.13464	
-1.34949	-1.82739	0.483704	-1.14227	
-1.30981	-1.71234	0.557251	-1.09589	
-1.35376	-1.66077	0.607605	-1.01776	
-1.44165	-1.65344	0.489197	-1.0202	
-1.48071	-1.67053	0.165405	-1.01715	
-1.42883	-1.66962	-0.114441	-0.964355	
-1.30493	-1.71326	-0.206299	-0.91217	
-1.18042	-1.85883	-0.177917	-0.985718	
-1.10229	-2.0694	-0.184937	-1.16882	
-1.10901	-2.26044	-0.261536	-1.37848	
-1.17004	-2.37152	-0.314331	-1.52435	
-1.23932	-2.4472	-0.291138	-1.5387	
-1.26099	-2.50458	-0.228577	-1.46271	
-1.25031	-2.51221	-0.139771	-1.33698	
-1.23932	-2.40326	-0.0527954	-1.21155	
-1.26404	-2.20947	0.0268555	-1.08917	
-1.28906	-2.02515	0.0991821	-0.861206	
-1.2912	-1.90918	0.135498	-0.599365	
-1.27777	-1.80359	0.117493	-0.392151	
-1.28387	-1.63269	0.0521851	-0.387878	
-1.32324	-1.41541	-0.00457764	-0.567322	
-1.39801	-1.29822	-0.0158691	-0.791016	
-1.52863	-1.33942	0.015564	-0.916138	
-1.70166	-1.52405	-0.0106812	-1.03912	
-1.85608	-1.73706	-0.115356	-1.16669	
-1.86676	-1.91284	-0.206909	-1.22345	
-1.67755	-2.06787	-0.222778	-1.22192	
-1.37726	-2.20825	-0.159607	-1.23993	
-1.13861	-2.34619	-0.124207	-1.38245	
-1.05682	-2.44751	-0.143433	-1.60309	
-1.10809	-2.49115	-0.134277	-1.73279	
-1.20819	-2.48749	-0.00579834	-1.64246	
-1.3324	-2.46185	0.204468	-1.53259	
-1.49353	-2.45605	0.36438	-1.45599	
-1.66504	-2.46246	0.353394	-1.41876	
-1.76422	-2.49298	0.188599	-1.36261	
-1.73004	-2.51282	-0.0088501	-1.297	
-1.63239	-2.47223	-0.145264	-1.31317	
-1.58508	-2.33643	-0.188293	-1.37512	
-1.68213	-2.16858	-0.188904	-1.40686	
-1.88324	-2.02362	-0.23407	-1.41663	
-2.05414	-1.98944	-0.358582	-1.39923	
-2.1051	-2.00378	-0.552063	-1.35162	
-2.04712	-2.04498	-0.748901	-1.34033	
-1.96228	-2.08252	-0.849304	-1.38153	
-1.92169	-2.10541	-0.802307	-1.44714	
-1.91223	-2.11487	-0.623474	-1.52771	
-1.93085	-2.10449	-0.405273	-1.57715	
-1.95923	-2.04956	-0.239868	-1.64185	
-1.95679	-1.98975	-0.101929	-1.76178	
-1.8869	-1.93329	0.06073	-1.89941	
-1.77887	-1.8866	0.221252	-2.03278	
-1.68823	-1.83258	0.313416	-2.00867	
-1.66107	-1.73584	0.249023	-1.91895	
-1.67694	-1.65466	0.0811768	-1.76331	
-1.65497	-1.62567	-0.0732422	-1.65619	
-1.58203	-1.64154	-0.159912	-1.67206	
-1.474	-1.6684	-0.198059	-1.7984	
-1.35681	-1.66534	-0.25238	-1.9162	
-1.26862	-1.6684	-0.348511	-1.98456	
-1.24542	-1.71326	-0.471497	-1.97693	
-1.34644	-1.74622	-0.587463	-1.87958	
-1.57104	-1.75049	-0.689697	-1.80145	
-1.82556	-1.74408	-0.767212	-1.72913	
-2.0047	-1.77734	-0.803833	-1.68243	
-2.06421	-1.88507	-0.822754	-1.64032	
-2.02026	-2.03247	-0.840149	-1.6449	
-1.9455	-2.19543	-0.839844	-1.72272	
-1.89819	-2.35748	-0.804749	-1.87622	
-1.89178	-2.45117	-0.753784	-2.03796	
-1.89545	-2.45117	-0.720215	-2.13348	
-1.89362	-2.35229	-0.695801	-2.12982	
-1.90948	-2.18048	-0.630493	-2.11243	
-1.94885	-1.98792	-0.492859	-2.05078	
-1.97418	-1.85425	-0.356445	-2.00104	
-1.92078	-1.78345	-0.292053	-1.87134	
-1.77734	-1.75751	-0.3302	-1.84082	
-1.62842	-1.63635	-0.411377	-1.96075	
-1.55212	-1.33972	-0.465698	-2.10022	
-1.59576	-0.945129	-0.503845	-2.14935	
-1.71234	-0.570374	-0.576172	-2.02301	
-1.81488	-0.262756	-0.688171	-1.76178	
-1.84937	-0.043335	-0.81604	-1.46179	
-1.78711	0.0238037	-0.927734	-1.26465	
-1.65588	-0.0756836	-1.00555	-1.24786	
-1.48895	-0.274658	-0.979614	-1.41571	
-1.35315	-0.447693	-0.863037	-1.69067	
-1.3208	-0.537415	-0.725403	-1.94061	
-1.42487	-0.607605	-0.631104	-2.13928	
-1.58905	-0.714417	-0.609436	-2.35168	
-1.70502	-0.861816	-0.617065	-2.612	
-1.70258	-0.979919	-0.655518	-2.74139	
-1.60553	-1.02661	-0.743408	-2.67944	
-1.49109	-1.0202	-0.827026	-2.49786	
-1.3974	-1.026	-0.813293	-2.30957	
-1.35101	-1.008	-0.671387	-2.27112	
-1.37726	-0.949402	-0.493469	-2.31598	
-1.47552	-0.810547	-0.471802	-2.32025	
-1.6394	-0.589905	-0.682678	-2.26746	
-1.82526	-0.332642	-0.969238	-2.1106	
-2.00256	-0.113831	-1.17371	-1.95129	
-2.12097	-0.000305176	-1.23199	-1.79199	
-2.13135	-0.0106812	-1.19812	-1.56616	
-2.05078	-0.125427	-1.18774	-1.45691	
-1.95343	-0.310059	-1.17615	-1.49445	
-1.88812	-0.549927	-1.17859	-1.6861	
-1.90277	-0.808716	-1.21552	-2.01843	
-1.93451	-1.02692	-1.26404	-2.31903	
-1.94153	-1.14929	-1.28265	-2.45056	
-1.90765	-1.18011	-1.21704	-2.44141	
-1.87256	-1.13922	-1.06812	-2.3584	
-1.91895	-1.10138	-0.873718	-2.27905	
-2.05933	-1.0791	-0.681458	-2.26135	
-2.22839	-1.04767	-0.541992	-2.2525	
-2.3288	-0.954285	-0.509033	-2.22931	
-2.32025	-0.79834	-0.582275	-2.16309	
-2.23907	-0.682678	-0.704651	-2.07489	
-2.16583	-0.609741	-0.836487	-1.98792	
-2.1637	-0.541077	-0.960083	-1.85059	
-2.22626	-0.393372	-1.08917	-1.6922	
-2.31598	-0.218811	-1.18286	-1.55396	
-2.36206	-0.102539	-1.17523	-1.44592	
-2.38495	-0.0814819	-1.0733	-1.3678	
-2.39014	-0.158081	-0.94574	-1.33636	
-2.38556	-0.28595	-0.880432	-1.35132	
-2.33856	-0.431519	-0.865784	-1.38885	
-2.23602	-0.575867	-0.850525	-1.56769	
-2.09808	-0.670166	-0.751953	-1.71539	
-1.97388	-0.686035	-0.557556	-1.71997	
-1.8924	-0.620422	-0.34729	-1.60706	
-1.86432	-0.513916	-0.191345	-1.53595	
-1.89301	-0.489807	-0.135193	-1.6449	
-1.95679	-0.587769	-0.1651	-1.83929	
-2.05322	-0.776978	-0.293579	-1.97021	
-2.15546	-0.927429	-0.487671	-1.90857	
-2.17987	-0.896301	-0.6427	-1.72485	
-2.14691	-0.682983	-0.722656	-1.50604	
-2.12982	-0.395508	-0.769043	-1.38153	
-2.21802	-0.106506	-0.859985	-1.30402	
-2.39532	0.123291	-1.00555	-1.23596	
-2.55524	0.256653	-1.12762	-1.20483	
-2.66449	0.234985	-1.16943	-1.2674	
-2.74963	0.0515747	-1.1319	-1.39618	
-2.81128	-0.221252	-1.07208	-1.45905	
-2.81982	-0.498962	-1.04156	-1.32294	
-2.74658	-0.708923	-1.05225	-1.07666	
-2.63855	-0.822754	-1.09619	-0.898743	
-2.53601	-0.861206	-1.1145	-0.937195	
-2.46002	-0.85144	-1.08032	-1.07483	
-2.39594	-0.847778	-0.993347	-1.21429	
-2.34192	-0.871887	-0.890808	-1.28052	
-2.32483	-0.890808	-0.821838	-1.24847	
-2.3465	-0.865784	-0.776672	-1.20392	
-2.42188	-0.830994	-0.764465	-1.21155	
-2.50153	-0.812683	-0.746155	-1.30829	
-2.54456	-0.836792	-0.691223	-1.36139	
-2.52563	-0.85144	-0.588989	-1.3089	
-2.4585	-0.772705	-0.494385	-1.1441	
-2.40448	-0.635376	-0.496216	-0.923157	
-2.41333	-0.554504	-0.611267	-0.819702	
-2.45636	-0.599976	-0.791016	-0.711365	
-2.49634	-0.712585	-0.932007	-0.648193	
-2.52289	-0.805969	-0.98114	-0.688171	
-2.55249	-0.866089	-0.941772	-0.921326	
-2.61078	-0.920105	-0.85907	-1.27686	
-2.6828	-1.03271	-0.789185	-1.47125	
-2.73804	-1.19476	-0.765381	-1.4563	
-2.76917	-1.34277	-0.775757	-1.36688	
-2.77069	-1.40991	-0.742798	-1.34705	
-2.75085	-1.38641	-0.615234	-1.42029	
-2.70416	-1.3443	-0.434875	-1.5448	
-2.64893	-1.33301	-0.293884	-1.63635	
-2.59125	-1.35071	-0.232849	-1.65009	
-2.56805	-1.34705	-0.19989	-1.61713	
-2.59827	-1.30768	-0.158386	-1.56036	
-2.68829	-1.19934	-0.157166	-1.55121	
-2.79999	-1.03302	-0.265198	-1.58966	
-2.88788	-0.861206	-0.432129	-1.6626	
-2.94159	-0.728455	-0.523376	-1.66626	
