4.31061	0.560608	0.437927	0.55542	
4.2926	0.490417	0.467529	0.664978	
4.36646	0.465698	0.494995	0.809021	
4.47632	0.523376	0.411377	1.07819	
4.53247	0.62439	0.218811	1.35132	
4.51538	0.722046	0.0460815	1.60034	
4.47418	0.774231	-0.0439453	1.68518	
4.44641	0.765991	-0.0869751	1.57043	
4.45251	0.715637	-0.151978	1.35803	
4.46075	0.693359	-0.227661	1.2262	
4.43939	0.747986	-0.251465	1.18896	
4.3811	0.870056	-0.229187	1.17126	
4.29047	0.979919	-0.26001	1.07208	
4.19434	1.02448	-0.38269	0.977478	
4.15558	1.01166	-0.569153	0.968323	
4.198	0.98175	-0.734253	1.05377	
4.32037	0.950317	-0.817566	1.12305	
4.46167	0.88501	-0.8078	1.08185	
4.55109	0.785217	-0.705872	0.945435	
4.56696	0.71991	-0.550842	0.805969	
4.52545	0.727844	-0.444031	0.730896	
4.48151	0.762634	-0.473022	0.717468	
4.48761	0.759888	-0.667725	0.713806	
4.5105	0.744019	-0.946045	0.746155	
4.49738	0.804443	-1.15906	0.777893	
4.43176	0.929871	-1.21735	0.794983	
4.32312	1.05255	-1.10901	0.718689	
4.17694	1.11267	-0.902405	0.72937	
4.00696	1.1145	-0.72998	0.846252	
3.86322	1.10565	-0.666199	1.02844	
3.7323	1.04858	-0.732117	1.08215	
3.62946	0.97229	-0.874634	0.910645	
3.56903	0.992737	-1.00616	0.592651	
3.58459	1.16302	-1.02295	0.39032	
3.69141	1.44348	-0.843811	0.388489	
3.81439	1.65894	-0.518188	0.498352	
3.91113	1.73187	-0.22644	0.556946	
3.97278	1.68182	-0.13031	0.549316	
3.97217	1.52863	-0.279236	0.479736	
3.91846	1.32996	-0.564575	0.444336	
3.86536	1.08765	-0.857849	0.459595	
3.87024	0.877991	-1.11847	0.490723	
3.91205	0.781555	-1.32935	0.544739	
3.88916	0.861206	-1.47308	0.600586	
3.7381	1.07269	-1.51184	0.529175	
3.51074	1.2674	-1.45386	0.393982	
3.31207	1.33698	-1.34857	0.218201	
3.19427	1.34552	-1.27075	0.109558	
3.12805	1.32904	-1.25977	0.083313	
3.0365	1.32721	-1.29181	0.020752	
2.9425	1.30249	-1.27777	-0.0665283	
2.90161	1.25519	-1.16028	-0.137939	
2.99347	1.24939	-0.91156	-0.157776	
3.1897	1.2677	-0.645447	-0.100098	
3.3902	1.25549	-0.531311	-0.127869	
3.54614	1.22009	-0.663147	-0.19989	
3.61298	1.1795	-0.990295	-0.329285	
3.56842	1.21124	-1.34613	-0.340881	
3.42834	1.29517	-1.59271	-0.202942	
3.284	1.32324	-1.67969	0.0375366	
3.28003	1.25885	-1.64978	0.303345	
3.41766	1.1615	-1.58234	0.433655	
3.57697	1.14655	-1.56952	0.414429	
3.61816	1.25	-1.61835	0.439758	
3.51715	1.39923	-1.69769	0.415955	
3.36334	1.49658	-1.76361	0.393372	
3.2309	1.50513	-1.80115	0.375366	
3.19	1.46271	-1.76544	0.46875	
3.25073	1.44775	-1.62323	0.591736	
3.3844	1.48315	-1.35803	0.573425	
3.56049	1.52496	-0.996399	0.297852	
3.7384	1.54541	-0.663147	-0.121765	
3.92334	1.52832	-0.432434	-0.345764	
4.04419	1.46912	-0.406189	-0.327148	
4.0155	1.34796	-0.609741	-0.120239	
3.84888	1.21429	-1.01044	0.0610352	
3.6792	1.12152	-1.4447	0.22522	
3.64655	1.1203	-1.73859	0.447998	
3.81317	1.27441	-1.80267	0.684509	
4.07013	1.46515	-1.70624	0.8255	
4.29138	1.61102	-1.57928	0.79834	
4.40155	1.56372	-1.52527	0.757446	
4.39453	1.33545	-1.5976	0.752563	
4.30695	1.10291	-1.77002	0.814514	
4.18365	0.973511	-1.95618	0.794983	
4.01398	0.9198	-2.0166	0.68573	
3.83057	0.912476	-1.83258	0.50293	
3.73871	0.897522	-1.42609	0.311584	
3.7973	0.858765	-0.957947	0.123596	
3.99078	0.815735	-0.603943	0.0286865	
4.20593	0.760193	-0.460205	0.0201416	
4.3158	0.718689	-0.522461	0.0790405	
4.28864	0.682983	-0.67627	0.141296	
4.22424	0.609436	-0.856018	0.129395	
4.22241	0.525208	-0.978088	0.175171	
4.32007	0.463257	-1.04797	0.250549	
4.47693	0.447388	-1.08948	0.452881	
4.63928	0.465698	-1.13586	0.660706	
4.79065	0.554504	-1.21765	0.776672	
4.89227	0.696716	-1.31561	0.768433	
4.88495	0.863953	-1.40503	0.734863	
4.76257	0.957336	-1.45081	0.67627	
4.60724	0.922852	-1.40137	0.660706	
4.54163	0.793152	-1.26801	0.748901	
4.61853	0.644836	-1.12305	0.820618	
4.80133	0.518799	-1.05621	0.743103	
5.00946	0.452881	-1.06445	0.598145	
5.17487	0.386963	-1.08307	0.447388	
5.2713	0.3125	-1.07727	0.33844	
5.30518	0.170288	-1.0675	0.317383	
5.3064	0.0390625	-1.09467	0.293579	
5.28534	-0.0405884	-1.13525	0.2948	
5.28503	-0.0305176	-1.14014	0.379028	
5.32745	0.055542	-1.07849	0.502625	
5.40771	0.172424	-0.968628	0.656128	
5.48309	0.311279	-0.898438	0.751953	
5.46295	0.465698	-0.957947	0.77301	
5.41138	0.598145	-1.11542	0.813904	
5.44983	0.674133	-1.23749	0.881348	
5.56763	0.706177	-1.25244	0.961914	
5.71136	0.793762	-1.19202	0.994568	
5.75562	0.962219	-1.22559	0.974426	
5.72632	1.12366	-1.38123	0.897827	
5.74799	1.14685	-1.50543	0.823669	
5.85632	1.01349	-1.4743	0.723572	
6.01563	0.8255	-1.3092	0.573425	
6.10779	0.717163	-1.13892	0.467224	
6.10077	0.722351	-1.05072	0.454712	
6.09467	0.779724	-0.999451	0.537109	
6.1969	0.845032	-0.92865	0.600891	
6.39008	0.87738	-0.842285	0.559387	
6.57349	0.881042	-0.794067	0.456238	
6.60461	0.852661	-0.8078	0.39856	
6.49017	0.793457	-0.837402	0.385742	
6.29608	0.696716	-0.826111	0.368347	
6.09192	0.583496	-0.799255	0.332642	
5.94574	0.489197	-0.814514	0.369263	
5.84686	0.447388	-0.936584	0.41748	
5.7959	0.467529	-1.10687	0.417786	
5.77148	0.555115	-1.23413	0.400696	
5.74738	0.735168	-1.24939	0.443115	
5.70801	0.948486	-1.20239	0.646667	
5.6839	1.10168	-1.1499	0.936584	
5.69305	1.15051	-1.13678	1.13098	
5.73273	1.11786	-1.12701	1.20361	
5.80688	1.04736	-1.08582	1.11267	
5.93201	0.942383	-1.01318	0.939026	
6.09314	0.852356	-0.931702	0.843811	
6.20667	0.828247	-0.933533	0.825806	
6.17371	0.904541	-1.06659	0.956726	
5.97046	1.04034	-1.25305	1.11145	
5.71564	1.13373	-1.32324	1.14929	
5.5307	1.17523	-1.18713	1.06934	
5.45502	1.24298	-0.944519	0.960388	
5.45502	1.38458	-0.820313	0.889893	
5.49194	1.55518	-0.939026	0.857849	
5.53925	1.66931	-1.19141	0.805664	
5.60333	1.71875	-1.42273	0.734558	
5.66132	1.73859	-1.56616	0.74646	
5.73395	1.78131	-1.64124	0.916443	
5.82214	1.81885	-1.70258	1.17615	
5.89752	1.77002	-1.74591	1.2851	
5.90942	1.65527	-1.78192	1.25031	
5.86517	1.53992	-1.87653	1.12671	
5.80841	1.52374	-2.05383	1.0553	
5.79376	1.60217	-2.23938	1.04797	
5.80383	1.68915	-2.36023	1.07147	
5.77942	1.69586	-2.38678	1.06384	
5.70374	1.65619	-2.3172	0.976868	
5.57617	1.65161	-2.14874	0.817566	
5.44037	1.73981	-1.91284	0.667114	
5.32562	1.86951	-1.71387	0.499878	
5.23407	1.93146	-1.66779	0.440979	
5.15564	1.89575	-1.75507	0.457458	
5.08057	1.79932	-1.84723	0.581665	
5.03174	1.70776	-1.85028	0.672913	
5.0647	1.68518	-1.79535	0.689392	
5.19348	1.66901	-1.74316	0.653381	
5.3421	1.64795	-1.74286	0.65918	
5.44342	1.61438	-1.78314	0.580139	
5.46387	1.58875	-1.85852	0.39856	
5.44342	1.60431	-1.9577	0.391846	
5.39917	1.59851	-2.07428	0.61676	
5.34729	1.56403	-2.12891	1.02112	
5.28534	1.50513	-2.09747	1.22223	
5.19348	1.47339	-2.00439	1.05255	
5.06958	1.51306	-1.91681	0.679932	
4.9292	1.60034	-1.88507	0.360413	
4.83917	1.651	-1.90613	0.234375	
4.823	1.62018	-1.92139	0.3125	
4.90234	1.57227	-1.86279	0.552673	
5.05188	1.5802	-1.73706	0.769653	
5.2594	1.66473	-1.58325	0.923767	
5.50812	1.74896	-1.40503	0.952759	
5.76202	1.80511	-1.19598	0.856323	
6.01654	1.83746	-0.953064	0.860901	
6.21826	1.8576	-0.71991	0.942383	
6.32446	1.85364	-0.593872	1.06659	
6.30737	1.74011	-0.593872	1.0614	
6.19446	1.56799	-0.649414	0.942383	
6.01898	1.40869	-0.666504	0.864563	
5.76904	1.3678	-0.608215	0.873108	
5.44312	1.47064	-0.513916	0.918579	
5.08636	1.55365	-0.489197	0.98938	
4.79584	1.49536	-0.578613	1.05865	
4.59534	1.34277	-0.803223	1.10718	
4.47479	1.19293	-1.10565	1.09467	
4.41345	1.14777	-1.40594	0.978699	
4.37927	1.15051	-1.6571	0.826416	
4.33716	1.10413	-1.80908	0.650024	
4.2981	0.940247	-1.84448	0.472717	
4.26025	0.751038	-1.79626	0.413818	
4.2453	0.622559	-1.70593	0.525818	
4.22791	0.631409	-1.63513	0.773621	
4.17847	0.693665	-1.62445	0.993347	
4.13147	0.68573	-1.65527	0.994568	
4.14856	0.57373	-1.66412	0.84198	
4.23065	0.404053	-1.59821	0.635986	
4.36127	0.271912	-1.39618	0.382385	
4.4751	0.247498	-1.091	0.143433	
4.5163	0.326538	-0.803223	0.0665283	
4.46228	0.482483	-0.696411	0.130005	
4.33685	0.611877	-0.861511	0.339355	
4.21112	0.645447	-1.20026	0.525208	
4.12933	0.58197	-1.55579	0.686035	
4.05548	0.496216	-1.79718	0.77179	
3.99231	0.474548	-1.89728	0.780334	
3.96179	0.513611	-1.92841	0.724182	
3.9798	0.522766	-1.9458	0.654907	
4.02802	0.437622	-1.98486	0.65094	
4.05365	0.266724	-2.01385	0.675964	
4.0741	0.0836182	-1.98151	0.628357	
4.12109	-0.0543213	-1.88599	0.571594	
4.16229	-0.0967407	-1.75262	0.529175	
4.15222	-0.00976563	-1.633	0.457153	
4.06799	0.205078	-1.54633	0.40863	
3.92914	0.395813	-1.50665	0.372314	
3.82233	0.45929	-1.50391	0.343933	
3.78662	0.433655	-1.5329	0.29541	
3.83301	0.465088	-1.62262	0.366211	
3.92334	0.636292	-1.72302	0.539246	
4.01703	0.817871	-1.7926	0.710449	
4.13818	0.868835	-1.79291	0.748596	
4.26544	0.835266	-1.7453	0.701599	
4.38232	0.864258	-1.72394	0.63446	
4.4165	0.966187	-1.74805	0.52887	
4.3335	1.08643	-1.79504	0.384827	
4.20807	1.08215	-1.82953	0.256348	
4.17511	0.931702	-1.82098	0.219116	
4.33807	0.769043	-1.7276	0.17395	
4.6405	0.734558	-1.53778	0.0570679	
4.89471	0.848694	-1.31012	-0.098877	
4.94385	1.02173	-1.1322	-0.231018	
4.81262	1.08673	-1.05774	-0.330505	
4.60052	1.03577	-1.04675	-0.433044	
4.39209	0.959778	-1.07971	-0.57251	
4.24683	0.899353	-1.15967	-0.636902	
4.1922	0.870972	-1.30249	-0.625305	
4.20746	0.870972	-1.44714	-0.484619	
4.25873	0.9198	-1.49841	-0.307922	
4.28741	0.982666	-1.44501	-0.180359	
4.27582	1.01105	-1.37177	-0.198669	
4.22516	0.987549	-1.34521	-0.314026	
4.13727	0.987549	-1.36383	-0.417175	
4.10126	1.02936	-1.3916	-0.401001	
4.1745	1.02966	-1.38397	-0.313416	
4.35974	0.928345	-1.32019	-0.280151	
4.54254	0.743103	-1.21277	-0.317383	
4.57458	0.601196	-1.14929	-0.377502	
4.42444	0.6427	-1.17432	-0.257568	
4.17236	0.732727	-1.26434	-0.00976563	
3.97156	0.768433	-1.35132	0.159302	
3.89801	0.67627	-1.41846	0.0646973	
3.92822	0.55481	-1.4856	-0.0778198	
3.98926	0.523376	-1.54358	-0.0561523	
4.08478	0.617065	-1.56677	0.163574	
4.22668	0.760193	-1.54083	0.398254	
4.37134	0.85083	-1.47186	0.520935	
4.46594	0.833435	-1.40717	0.491028	
4.47449	0.708313	-1.35712	0.349121	
4.43726	0.594177	-1.31805	0.153503	
4.40582	0.52948	-1.29059	0.0714111	
4.41528	0.515137	-1.23077	0.116272	
4.45892	0.546875	-1.12396	0.181885	
4.53186	0.583801	-0.995483	0.0708008	
4.58374	0.605774	-0.904236	-0.124817	
4.55963	0.698242	-0.883789	-0.200806	
4.45007	0.860901	-0.943298	-0.110474	
4.28925	1.04614	-1.05194	-0.0234985	
4.17267	1.14685	-1.17615	0.0326538	
4.16351	1.09406	-1.27563	0.0561523	
4.27429	1.0022	-1.30157	0.14801	
4.46716	0.940247	-1.25092	0.267334	
4.67621	0.917053	-1.16272	0.336304	
4.84375	0.955505	-1.04401	0.435181	
4.87518	1.00739	-0.936279	0.554199	
4.7287	1.05743	-0.851135	0.652771	
4.4519	1.03271	-0.794983	0.657654	
4.2218	0.94574	-0.713196	0.545654	
4.16412	0.858765	-0.604248	0.424805	
4.25842	0.829468	-0.517578	0.424194	
4.375	0.853577	-0.525208	0.395508	
4.4165	0.911255	-0.619812	0.365601	
4.38751	1.02905	-0.717468	0.402527	
4.34601	1.23291	-0.802002	0.508728	
4.35852	1.40045	-0.913391	0.644531	
4.41711	1.4328	-1.04401	0.653687	
4.47937	1.29791	-1.16577	0.595703	
4.49585	1.14502	-1.24054	0.561829	
4.46045	1.12885	-1.26892	0.58197	
4.41589	1.27594	-1.2619	0.452271	
4.38782	1.44073	-1.2323	0.264587	
4.38232	1.48346	-1.19812	0.0842285	
4.44855	1.41052	-1.16821	0.128479	
4.62708	1.29395	-1.12915	0.283813	
4.85107	1.20972	-1.05255	0.354309	
4.95789	1.17798	-0.925293	0.314331	
4.8175	1.18561	-0.776978	0.194092	
4.49646	1.24878	-0.671692	0.0469971	
4.20258	1.32629	-0.624695	-0.067749	
4.0744	1.32568	-0.65094	-0.172119	
4.09424	1.27747	-0.743408	-0.148926	
4.15192	1.25031	-0.873718	0.0708008	
4.18793	1.29578	-1.00372	0.445251	
4.22211	1.39343	-1.09222	0.783081	
4.27765	1.47797	-1.1319	0.871887	
4.3338	1.53809	-1.13403	0.809631	
4.33258	1.56342	-1.11389	0.713501	
4.27032	1.5509	-1.09741	0.646362	
4.16168	1.5744	-1.11481	0.535889	
4.04358	1.6391	-1.16119	0.344238	
3.97308	1.69739	-1.24023	0.158997	
3.96515	1.63788	-1.31805	0.0640869	
3.99017	1.47583	-1.34644	0.115967	
3.96393	1.27106	-1.30463	0.2005	
3.87512	1.11633	-1.22314	0.283813	
3.79272	1.03271	-1.2027	0.314941	
3.72437	0.996704	-1.28693	0.364075	
3.59436	1.03882	-1.48499	0.466614	
3.38074	1.13892	-1.72607	0.588379	
3.15948	1.31958	-1.91223	0.606384	
3.04749	1.52435	-1.98029	0.444336	
3.08868	1.75079	-1.90674	0.265808	
3.20801	1.88507	-1.77521	0.26001	
3.3197	1.87927	-1.698	0.486145	
3.35388	1.71448	-1.71906	0.711975	
3.31696	1.49994	-1.79047	0.789795	
3.33588	1.35773	-1.84753	0.736389	
3.47778	1.29791	-1.8335	0.669861	
3.67462	1.26862	-1.7453	0.620117	
3.7793	1.23688	-1.58295	0.600891	
3.72162	1.21582	-1.3681	0.68512	
3.58978	1.27045	-1.18042	0.880432	
3.50647	1.40869	-1.11664	1.07666	
3.5022	1.57501	-1.23932	1.06476	
3.53516	1.69861	-1.47156	0.969849	
3.53851	1.75201	-1.67328	0.983276	
3.45276	1.77795	-1.73004	1.21002	
3.28491	1.85333	-1.66962	1.44928	
3.11615	1.95953	-1.586	1.51917	
3.09113	2.07367	-1.50116	1.55304	
3.23517	2.13165	-1.41815	1.62231	
3.44635	2.09991	-1.33636	1.76697	
3.56079	1.98975	-1.28052	1.83899	
3.54492	1.83807	-1.27563	1.72516	
3.49457	1.68671	-1.31134	1.44989	
3.50433	1.56891	-1.3504	1.21002	
3.56506	1.54144	-1.38092	1.06049	
3.573	1.62415	-1.40503	0.919495	
3.46527	1.77063	-1.42029	0.700684	
3.27728	1.94	-1.42731	0.541077	
3.13019	2.08374	-1.4447	0.56488	
3.09723	2.25372	-1.49902	0.84259	
3.08624	2.36511	-1.60187	1.08826	
2.9892	2.3822	-1.74896	1.11389	
2.80731	2.24976	-1.87256	0.930176	
2.65259	2.1051	-1.9046	0.748901	
2.64648	2.00104	-1.83746	0.626221	
2.78442	1.95618	-1.70746	0.506287	
3.02032	1.93054	-1.61072	0.403137	
3.2843	1.8924	-1.5921	0.328369	
3.53302	1.84204	-1.61072	0.214539	
3.70819	1.76819	-1.59454	-0.0421143	
3.79639	1.65192	-1.49078	-0.569153	
3.75702	1.50024	-1.32477	-1.15631	
3.60657	1.35651	-1.13007	-1.56525	
3.40851	1.28296	-0.939331	-1.64154	
3.24463	1.30371	-0.828857	-1.50024	
3.16223	1.39099	-0.847778	-1.40869	
3.16071	1.46149	-0.996704	-1.48254	
3.20374	1.50055	-1.21796	-1.65649	
3.25104	1.50177	-1.47247	-1.8277	
3.26508	1.47552	-1.72241	-1.95862	
3.23761	1.43219	-1.92291	-2.06329	
3.20801	1.38336	-2.02728	-2.05566	
3.23608	1.36322	-2.04651	-1.99951	
3.36609	1.33942	-2.02545	-1.94733	
3.59161	1.27045	-1.99799	-2.00745	
3.84674	1.20392	-1.97998	-2.19574	
4.05487	1.12427	-1.96045	-2.41211	
4.16992	1.00677	-1.89301	-2.66541	
4.19464	0.764771	-1.76025	-3.04169	
4.14337	0.445862	-1.56982	-3.51105	
4.05487	0.222778	-1.40076	-3.70728	
3.94073	0.210571	-1.35284	-3.51868	
3.81348	0.368652	-1.427	-3.0838	
3.66211	0.579224	-1.57806	-2.85309	
3.51624	0.736694	-1.72668	-2.89368	
3.4314	0.793762	-1.84509	-2.966	
3.44269	0.755615	-1.92169	-2.82562	
3.51746	0.725098	-1.93573	-2.48505	
3.62183	0.797729	-1.8985	-2.19086	
3.74664	1.008	-1.85059	-1.96716	
3.88458	1.30402	-1.81732	-1.79871	
4.01001	1.53687	-1.83563	-1.73431	
4.11438	1.66595	-1.88599	-1.63208	
4.20349	1.71478	-1.95251	-1.50757	
4.35852	1.72516	-1.96991	-1.30005	
4.55231	1.71082	-1.90765	-1.09711	
4.76196	1.69678	-1.75446	-1.01685	
4.92523	1.67328	-1.50726	-0.903931	
5.00885	1.62933	-1.22131	-0.740967	
4.9942	1.54327	-0.971985	-0.562744	
4.89105	1.40839	-0.861816	-0.499268	
4.76227	1.30554	-0.912781	-0.392151	
4.66919	1.26282	-1.05377	-0.191956	
4.6283	1.24664	-1.21063	0.151978	
4.63104	1.24359	-1.37726	0.432434	
4.63928	1.24573	-1.5506	0.600586	
4.6405	1.31592	-1.70227	0.756836	
4.6228	1.47583	-1.80267	0.934753	
4.61029	1.64978	-1.87073	1.03607	
4.65332	1.80023	-1.95496	1.06323	
4.76776	1.87836	-2.07275	1.14349	
4.89868	1.90643	-2.1521	1.2442	
4.96277	1.89697	-2.13348	1.29181	
4.94141	1.88446	-1.9928	1.35681	
4.87091	1.91925	-1.81305	1.48499	
4.79126	1.92291	-1.67572	1.57501	
4.73755	1.83228	-1.60828	1.49109	
4.69971	1.64948	-1.59088	1.18195	
4.70123	1.44745	-1.62323	0.908508	
4.71191	1.29852	-1.71509	0.778809	
4.73663	1.15326	-1.85974	0.740662	
4.76227	0.983887	-2.00897	0.692749	
4.79065	0.892029	-2.10358	0.567932	
4.80713	0.973816	-2.12128	0.558472	
4.81384	1.13525	-2.10327	0.610352	
4.80621	1.15051	-2.13013	0.603027	
4.7644	0.958557	-2.22748	0.484924	
4.72198	0.650024	-2.32056	0.233765	
4.66522	0.388794	-2.40051	-0.0192261	
4.55536	0.223389	-2.45514	-0.223999	
4.3396	0.140381	-2.49512	-0.437927	
4.03534	0.146179	-2.49237	-0.710754	
3.7793	0.233154	-2.43805	-1.06354	
3.68958	0.296021	-2.3822	-1.34674	
3.74542	0.227966	-2.42828	-1.5979	
3.8443	0.0177002	-2.58484	-1.69342	
3.91815	-0.216675	-2.7771	-1.60278	
3.92975	-0.333557	-2.92084	-1.44348	
3.90961	-0.316772	-2.96509	-1.32935	
3.89679	-0.246887	-2.9364	-1.39557	
3.89893	-0.148315	-2.88361	-1.46545	
3.89252	-0.0436401	-2.83661	-1.36536	
3.89771	0.0253296	-2.81311	-1.16974	
3.9505	0.0326538	-2.80029	-0.96283	
4.09821	-0.0357056	-2.79419	-0.857239	
4.25812	-0.0521851	-2.78748	-0.85022	
4.32465	-0.0927734	-2.75513	-0.903015	
4.26331	-0.191956	-2.7005	-1.00677	
4.11469	-0.39032	-2.66327	-1.11481	
3.93555	-0.603943	-2.6828	-1.16119	
3.75366	-0.735779	-2.77161	-1.14532	
3.6438	-0.740662	-2.8656	-0.941162	
3.61328	-0.617676	-2.90863	-0.674438	
3.61725	-0.419922	-2.89185	-0.430298	
3.60352	-0.256958	-2.84393	-0.324402	
3.57056	-0.178833	-2.81372	-0.3302	
3.57727	-0.154419	-2.80212	-0.323792	
3.60382	-0.10498	-2.80243	-0.241394	
3.59467	-0.0125122	-2.80121	-0.104675	
3.5434	0.0537109	-2.74414	0.0564575	
3.50616	0.0744629	-2.61566	0.252991	
3.54767	0.0588989	-2.48108	0.379639	
3.63464	0.0454712	-2.42798	0.36438	
3.72589	0.0888062	-2.45728	0.221558	
3.79242	0.194397	-2.48718	0.0592041	
3.79089	0.274658	-2.45178	-0.0839233	
3.72711	0.26062	-2.37	-0.123596	
3.65417	0.123291	-2.27631	-0.148315	
3.6499	-0.0616455	-2.20795	-0.123596	
3.72162	-0.23407	-2.14294	-0.0817871	
3.76373	-0.339355	-2.07703	-0.0271606	
3.67767	-0.368652	-2.03369	0.0366211	
3.49243	-0.297852	-2.05566	0.108948	
3.31543	-0.151062	-2.13898	0.171814	
3.22235	0.055542	-2.24579	0.167847	
3.20679	0.125732	-2.33856	-0.0109863	
3.19153	0.0531006	-2.40875	-0.320435	
3.1546	-0.130005	-2.46399	-0.59967	
3.12836	-0.256348	-2.52777	-0.769958	
3.12408	-0.212402	-2.58606	-0.78064	
3.14209	-0.0814819	-2.62268	-0.757446	
3.12744	0.039978	-2.63855	-0.812073	
3.10516	0.0405884	-2.63	-0.887756	
3.11096	-0.0393677	-2.61566	-0.836792	
3.17474	-0.129395	-2.6178	-0.689697	
3.24768	-0.158081	-2.65015	-0.549316	
3.22845	-0.093689	-2.73651	-0.529785	
3.0899	0.0808716	-2.84973	-0.512085	
2.89703	0.336914	-2.94464	-0.423584	
2.75787	0.617371	-3.0011	-0.281067	
2.77069	0.832214	-3.00415	-0.118103	
2.92297	0.900574	-2.97455	0.00518799	
3.11279	0.877991	-2.9129	0.142212	
3.22418	0.80658	-2.84027	0.210876	
3.19672	0.749817	-2.8009	0.205078	
3.06946	0.693054	-2.83081	0.239868	
2.995	0.587769	-2.89581	0.411377	
3.02277	0.438843	-2.92084	0.661926	
3.08105	0.244446	-2.86469	0.723572	
3.04626	0.0683594	-2.75818	0.534363	
2.87994	-0.0274658	-2.677	0.232239	
2.65472	-0.043335	-2.65808	0.0799561	
2.49634	-0.0210571	-2.6767	0.0784302	
2.48474	-0.0305176	-2.71851	0.11322	
2.59521	-0.114136	-2.76245	0.133057	
2.77191	-0.241699	-2.75665	0.119019	
2.90741	-0.305786	-2.68799	0.110168	
2.98767	-0.239258	-2.5354	0.071106	
3.01147	-0.0662231	-2.3877	-0.0592041	
3.01697	0.0982666	-2.28973	-0.254517	
3.02612	0.197449	-2.23114	-0.45929	
3.03619	0.236816	-2.24335	-0.578613	
3.06183	0.250549	-2.35443	-0.499268	
3.11279	0.249634	-2.52777	-0.180359	
3.19641	0.177307	-2.64252	0.160217	
3.33374	0.0646973	-2.56989	0.333252	
3.49121	0.000305176	-2.37396	0.30426	
3.62488	0.0250244	-2.2403	0.224304	
3.67279	0.104675	-2.27509	0.19165	
3.6377	0.163879	-2.44049	0.191345	
3.56293	0.0592041	-2.60254	0.211182	
3.51746	-0.0906372	-2.69928	0.120544	
3.51715	-0.188293	-2.73834	-0.0717163	
3.49396	-0.1297	-2.73804	-0.310364	
3.41461	-0.0161743	-2.66632	-0.426331	
3.27728	-0.0137329	-2.53204	-0.417175	
3.13324	-0.138245	-2.33765	-0.305786	
3.05267	-0.26001	-2.12097	-0.205078	
3.00812	-0.301819	-1.94092	-0.160217	
2.97241	-0.294189	-1.85547	-0.184326	
2.95013	-0.305176	-1.8457	-0.250244	
3.00293	-0.345154	-1.84448	-0.336609	
3.16864	-0.384827	-1.80511	-0.410767	
3.41217	-0.386353	-1.7157	-0.482178	
3.61206	-0.390015	-1.63422	-0.587158	
3.67096	-0.4245	-1.58844	-0.758972	
3.56842	-0.47821	-1.5741	-0.852661	
3.37585	-0.502319	-1.61926	-0.838928	
3.18359	-0.441589	-1.71722	-0.683289	
3.07068	-0.311279	-1.8576	-0.49408	
3.01788	-0.151367	-2.02209	-0.331421	
2.99133	-0.0350952	-2.19696	-0.212402	
2.94922	0.0308228	-2.3642	-0.122681	
2.88208	0.0720215	-2.48505	-0.043335	
2.80518	0.0802612	-2.5354	0.0473022	
2.77069	0.0137329	-2.49847	0.0616455	
2.83051	-0.130005	-2.37335	-0.0228882	
2.96387	-0.27832	-2.16919	-0.209656	
3.09662	-0.333862	-1.94489	-0.431213	
3.1604	-0.281677	-1.76056	-0.552673	
3.14758	-0.195007	-1.67023	-0.56427	
3.14301	-0.14801	-1.6803	-0.587158	
3.22113	-0.102539	-1.7514	-0.674438	
3.3667	-0.0375366	-1.81488	-0.65979	
3.48145	0.0286865	-1.87103	-0.472412	
3.48816	0.0140381	-1.95892	-0.181885	
3.42377	-0.0814819	-2.09442	0.0183105	
3.39142	-0.205688	-2.23969	0.0320435	
3.44421	-0.263367	-2.33887	-0.078125	
3.52356	-0.228577	-2.38068	-0.217896	
3.57452	-0.109253	-2.35077	-0.204773	
3.60077	0.0186157	-2.22565	-0.134888	
3.62427	0.0390625	-2.03308	-0.116272	
3.66119	-0.0512695	-1.85913	-0.24292	
3.69751	-0.20813	-1.7807	-0.501404	
3.7323	-0.346069	-1.82587	-0.690613	
3.77869	-0.435181	-1.90979	-0.796509	
3.86597	-0.462952	-1.90826	-0.829163	
4.02557	-0.470276	-1.71051	-0.883179	
4.24469	-0.494995	-1.34155	-0.926514	
4.44031	-0.559387	-0.999451	-0.960693	
4.48273	-0.600586	-0.892639	-1.01624	
4.31732	-0.56427	-1.05927	-1.03027	
4.06342	-0.455933	-1.34552	-1.02417	
3.8916	-0.343018	-1.57471	-0.929565	
3.86017	-0.252686	-1.7041	-0.848083	
3.89404	-0.113831	-1.76483	-0.821838	
3.91083	0.124207	-1.81488	-0.83252	
3.8916	0.374451	-1.87256	-0.800781	
3.84735	0.529175	-1.96686	-0.574036	
3.7619	0.556946	-2.11243	-0.274963	
3.65814	0.520935	-2.26227	-0.131836	
3.61481	0.47821	-2.31812	-0.274658	
3.67432	0.419312	-2.23053	-0.588684	
3.81317	0.310364	-2.0401	-0.852051	
3.94867	0.223083	-1.86432	-0.994873	
4.10583	0.201721	-1.76361	-1.02203	
4.30298	0.244141	-1.76361	-1.02112	
4.48242	0.325623	-1.84906	-0.992432	
4.53613	0.379333	-1.99493	-0.926819	
4.42078	0.377502	-2.13379	-0.836182	
4.20227	0.359192	-2.21497	-0.776978	
3.99078	0.358887	-2.21436	-0.826111	
3.86383	0.421143	-2.17834	-0.727234	
3.79761	0.527954	-2.14661	-0.544434	
3.73199	0.648804	-2.09778	-0.291748	
3.63373	0.76416	-2.02057	-0.163269	
3.53119	0.881653	-1.94916	-0.162964	
3.49335	1.01837	-1.92291	-0.119629	
3.52356	1.15082	-1.92841	-0.0411987	
3.56781	1.27014	-1.86859	0.0561523	
3.60901	1.29639	-1.73157	0.0198364	
3.61969	1.22284	-1.57623	-0.13031	
3.57727	1.0968	-1.49261	-0.281067	
3.55499	0.961914	-1.45996	-0.386047	
3.64075	0.825195	-1.44745	-0.482788	
3.87299	0.608215	-1.43494	-0.667725	
4.13086	0.384521	-1.47888	-0.844116	
4.20654	0.227051	-1.62201	-0.85083	
4.06403	0.217285	-1.77277	-0.555725	
3.78693	0.334778	-1.83502	-0.122986	
3.52814	0.43457	-1.79047	0.144043	
3.33588	0.444641	-1.71997	0.0482178	
3.22235	0.372314	-1.6925	-0.234375	
3.13477	0.280762	-1.68579	-0.397339	
3.07373	0.195923	-1.7099	-0.350647	
3.00812	0.158386	-1.79901	-0.167847	
2.95624	0.189819	-1.92078	0.0588989	
2.92999	0.241699	-1.99951	0.203857	
2.93335	0.215454	-1.9577	0.250854	
2.93121	0.0708008	-1.85791	0.10376	
2.9303	-0.108032	-1.81061	-0.204773	
2.97241	-0.15625	-1.86737	-0.538635	
3.0423	-0.108032	-1.99799	-0.78125	
3.07251	-0.0674438	-2.1347	-0.802002	
3.02124	-0.0888062	-2.23114	-0.666809	
2.90619	-0.145264	-2.27173	-0.458679	
2.836	-0.127258	-2.276	-0.354919	
2.81281	-0.078125	-2.3056	-0.429382	
2.76855	-0.0524902	-2.39868	-0.606384	
2.68127	-0.0827026	-2.52533	-0.766296	
2.58667	-0.145569	-2.64191	-0.726318	
2.57019	-0.1651	-2.67242	-0.539551	
2.64465	-0.114136	-2.6709	-0.340881	
2.7417	-0.0952148	-2.68066	-0.217285	
2.75238	-0.20813	-2.73743	-0.207214	
2.68219	-0.430298	-2.8006	-0.125732	
2.57965	-0.623169	-2.8064	-0.102539	
2.50854	-0.656433	-2.74261	-0.20752	
2.51129	-0.519409	-2.60284	-0.326233	
2.58911	-0.354614	-2.43439	-0.293884	
2.72186	-0.327759	-2.25891	-0.149841	
2.84698	-0.481262	-2.17133	-0.0839233	
2.86743	-0.697327	-2.21741	-0.209351	
2.76642	-0.820313	-2.37213	-0.400085	
2.57111	-0.811768	-2.54974	-0.508423	
2.34528	-0.794067	-2.62665	-0.479431	
2.13013	-0.785828	-2.6004	-0.364075	
1.97479	-0.772095	-2.57599	-0.212097	
1.97113	-0.768738	-2.57233	-0.153198	
2.1167	-0.778809	-2.59949	-0.12146	
2.33154	-0.819092	-2.6297	-0.0857544	
2.50244	-0.837708	-2.64374	-0.00762939	
2.55676	-0.875244	-2.63672	0.0448608	
2.54639	-0.981445	-2.6004	-0.0354004	
2.51434	-1.13373	-2.55249	-0.267334	
2.54913	-1.21643	-2.54669	-0.492859	
2.6886	-1.20239	-2.58026	-0.582581	
2.88849	-1.16089	-2.62207	-0.576172	
3.03314	-1.16974	-2.65289	-0.527954	
3.06213	-1.17493	-2.659	-0.440979	
3.02826	-1.12549	-2.65564	-0.32196	
3.00568	-0.966187	-2.65228	-0.196228	
2.97577	-0.785217	-2.70233	-0.111084	
2.87628	-0.692139	-2.79968	-0.13916	
2.73926	-0.717163	-2.90649	-0.215759	
2.64526	-0.767822	-2.96387	-0.276489	
2.63458	-0.73822	-2.94678	-0.400391	
2.66815	-0.575256	-2.91748	-0.509033	
2.7002	-0.419006	-2.91107	-0.496216	
2.72614	-0.353699	-2.89673	-0.34668	
2.72919	-0.407104	-2.84668	-0.239563	
2.69257	-0.487366	-2.77374	-0.374451	
2.60101	-0.531616	-2.74933	-0.622559	
2.50488	-0.541992	-2.83691	-0.775146	
2.46033	-0.555115	-3.01941	-0.767822	
2.47406	-0.612793	-3.22937	-0.762329	
2.50549	-0.717773	-3.36517	-0.883789	
2.52014	-0.823975	-3.39539	-1.03241	
2.5296	-0.905151	-3.34045	-1.11786	
2.55951	-0.930481	-3.25958	-1.18652	
2.59552	-0.920105	-3.20648	-1.27106	
2.60895	-0.901489	-3.20862	-1.37329	
2.59094	-0.868835	-3.22235	-1.38092	
2.59125	-0.872803	-3.1958	-1.29242	
2.63916	-0.887756	-3.09998	-1.20087	
2.73529	-0.914307	-2.93701	-1.17126	
2.86896	-0.892029	-2.78717	-1.0379	
3.02094	-0.823364	-2.71851	-0.906677	
3.13324	-0.766296	-2.77893	-0.812683	
3.17749	-0.714417	-2.94952	-0.75592	
3.17963	-0.692139	-3.13965	-0.740356	
3.21075	-0.658875	-3.25287	-0.58075	
3.27759	-0.624695	-3.24188	-0.379944	
3.28766	-0.59845	-3.13629	-0.248108	
3.19763	-0.609131	-2.96356	-0.203552	
3.07251	-0.657959	-2.74902	-0.177612	
2.98523	-0.750122	-2.51862	-0.105896	
2.97607	-0.839233	-2.35321	-0.0161743	
2.95074	-0.906372	-2.30469	0.0479126	
2.87292	-0.973816	-2.36542	0.0689697	
2.74597	-1.01807	-2.4353	0.0857544	
2.63428	-1.03119	-2.42462	0.178528	
2.62512	-0.957642	-2.3111	0.302124	
2.73468	-0.821838	-2.19147	0.38269	
2.85339	-0.692444	-2.21375	0.355225	
2.87964	-0.606384	-2.39624	0.359497	
2.80426	-0.565796	-2.62604	0.487061	
2.76184	-0.594788	-2.73987	0.599976	
2.84729	-0.640259	-2.67853	0.695496	
3.05206	-0.581665	-2.50275	0.792236	
3.28491	-0.356445	-2.29675	0.956116	
3.53333	-0.0238037	-2.09442	1.15112	
3.78662	0.221558	-1.89026	1.24146	
4.01978	0.366821	-1.66779	1.24146	
4.20654	0.480957	-1.39526	1.29089	
4.3457	0.632935	-1.0965	1.41235	
4.49249	0.755615	-0.774536	1.59241	
4.64783	0.743408	-0.498047	1.70685	
4.79553	0.644836	-0.26123	1.7926	
4.90417	0.514221	-0.0787354	1.87073	
4.98383	0.409241	0.0363159	1.82617	
4.97894	0.2948	0.0375366	1.66382	
4.8822	0.196838	-0.0863647	1.59698	
4.73969	0.158997	-0.267334	1.75903	
4.61792	0.178528	-0.411987	2.04498	
4.55994	0.214233	-0.483398	2.23663	
4.57245	0.210266	-0.507507	2.2467	
4.65607	0.154419	-0.557251	2.2052	
4.74487	0.104675	-0.689087	2.21161	
4.75159	0.0500488	-0.886536	2.1579	
4.60693	0.0012207	-1.10229	1.96167	
4.41589	-0.0616455	-1.22803	1.71021	
4.26605	-0.121155	-1.22772	1.49292	
4.16321	-0.195313	-1.13922	1.44714	
4.0741	-0.272217	-1.02875	1.53473	
4.01154	-0.393982	-0.949097	1.72729	
4.05518	-0.557861	-0.89447	1.91376	
4.17358	-0.787354	-0.83313	1.83716	
4.24286	-1.01379	-0.759888	1.55487	
4.15222	-1.12854	-0.655823	1.24115	
3.93616	-1.06293	-0.592346	1.10748	
3.69904	-0.906677	-0.65033	1.13434	
3.573	-0.785522	-0.832825	1.16547	
3.5788	-0.800171	-1.08765	1.11572	
3.67737	-0.905457	-1.33148	1.05377	
3.78082	-1.01837	-1.52405	1.05988	
3.83118	-1.06934	-1.651	1.07635	
3.8269	-1.01166	-1.68304	1.09406	
3.79028	-0.863953	-1.6275	1.06323	
3.75427	-0.673523	-1.54663	1.1145	
3.72894	-0.542603	-1.54694	1.23077	
3.74542	-0.537415	-1.68762	1.30615	
3.77594	-0.658569	-1.88965	1.22467	
3.77563	-0.845642	-1.98395	1.01074	
3.75671	-1.02875	-1.8634	0.834351	
3.74542	-1.1441	-1.56921	0.745239	
3.76617	-1.17401	-1.2735	0.657959	
3.74817	-1.15326	-1.12762	0.600586	
3.66669	-1.12457	-1.18469	0.689392	
3.59711	-1.09253	-1.37878	0.907898	
3.61755	-1.09039	-1.60034	1.04248	
3.65631	-1.10718	-1.75079	1.06476	
3.5788	-1.13251	-1.79352	1.06262	
3.34625	-1.11542	-1.7868	1.19904	
3.09906	-0.989075	-1.81793	1.37299	
2.95502	-0.801392	-1.91956	1.48224	
2.90802	-0.623779	-2.07367	1.57715	
2.8833	-0.562134	-2.2345	1.67084	
2.82349	-0.647888	-2.33521	1.73706	
2.74261	-0.74646	-2.34039	1.75507	
2.63824	-0.787354	-2.25464	1.69342	
2.54517	-0.726318	-2.12097	1.57715	
2.51495	-0.660095	-2.00562	1.57623	
2.54547	-0.716858	-1.97205	1.64246	
2.57599	-0.866394	-2.04132	1.76056	
2.55127	-1.01501	-2.18597	1.84052	
2.50732	-1.08215	-2.3291	1.88263	
2.48993	-1.11053	-2.37885	1.92993	
2.51129	-1.18713	-2.33795	1.93359	
2.53265	-1.32721	-2.26563	1.91284	
2.55219	-1.44806	-2.25555	1.81305	
2.52533	-1.46423	-2.31812	1.7514	
2.4472	-1.33667	-2.3996	1.68213	
2.30499	-1.13342	-2.46368	1.65771	
2.15057	-0.959473	-2.53418	1.65222	
2.04376	-0.873718	-2.61993	1.65375	
2.00378	-0.844421	-2.69287	1.64764	
2.00531	-0.799866	-2.66724	1.53687	
2.0517	-0.712891	-2.48169	1.40961	
2.1344	-0.664368	-2.15851	1.31287	
2.2525	-0.686646	-1.84082	1.21643	
2.32849	-0.728149	-1.69525	1.10931	
2.28241	-0.712891	-1.77795	1.02692	
2.11731	-0.641785	-2.00012	1.07208	
1.92627	-0.625	-2.22168	1.14868	
1.8515	-0.694885	-2.36053	1.22467	
1.92413	-0.705872	-2.41699	1.2262	
2.08282	-0.641479	-2.40356	1.12488	
2.22961	-0.472412	-2.34406	1.05988	
2.26379	-0.306091	-2.29279	1.02112	
2.16644	-0.1474	-2.31323	1.00677	
1.95374	0.0238037	-2.42065	0.965271	
1.72852	0.166321	-2.49725	0.914001	
1.56067	0.239868	-2.46246	0.936584	
1.50146	0.225525	-2.30255	1.0141	
1.50818	0.136719	-2.1109	1.02661	
1.5448	0.017395	-1.97815	0.944824	
1.58783	-0.09552	-1.93054	0.782166	
1.62506	-0.12207	-1.98334	0.739136	
1.64032	-0.0582886	-2.10663	0.806885	
1.63788	0.0360107	-2.26227	0.891724	
1.62933	0.0662231	-2.40234	0.921326	
1.64063	-0.0592041	-2.50336	0.823364	
1.68182	-0.258179	-2.55249	0.600891	
1.76025	-0.4245	-2.54944	0.252686	
1.8515	-0.37262	-2.50488	-0.0411987	
1.89484	-0.189819	-2.46429	-0.180664	
1.86371	-0.0445557	-2.45911	-0.125427	
1.77948	-0.114441	-2.48535	-0.0482178	
1.72668	-0.328064	-2.52289	-0.0296021	
1.73828	-0.501099	-2.56561	-0.039978	
1.80817	-0.527954	-2.59552	-0.0305176	
1.93237	-0.479736	-2.55554	0.111084	
2.05536	-0.487671	-2.39594	0.192871	
2.10999	-0.611877	-2.10846	0.166016	
2.052	-0.817261	-1.77002	-0.00793457	
1.93237	-1.00006	-1.51001	-0.177917	
1.84082	-1.03607	-1.44318	-0.267029	
1.79443	-0.928955	-1.59637	-0.201416	
1.73401	-0.732117	-1.87775	-0.0314331	
1.64337	-0.636902	-2.15271	0.130615	
1.5686	-0.707397	-2.33429	0.213318	
1.57867	-0.882874	-2.40326	0.196533	
1.6806	-1.04095	-2.38434	0.19928	
1.78558	-1.11328	-2.32239	0.184021	
1.80725	-1.13068	-2.26196	0.238647	
1.72699	-1.07361	-2.27356	0.281982	
1.63635	-1.00098	-2.37946	0.337219	
1.63208	-0.95459	-2.54181	0.387878	
1.71356	-0.94635	-2.70355	0.36377	
1.77887	-0.975952	-2.83081	0.24353	
1.7926	-0.995789	-2.91077	0.0363159	
1.84967	-0.994568	-2.93671	-0.226135	
2.02148	-1.01227	-2.90833	-0.285034	
2.25067	-1.00922	-2.86194	-0.0762939	
2.43256	-0.987549	-2.85583	0.30304	
2.54669	-0.929565	-2.93732	0.577087	
2.64862	-0.850525	-3.09235	0.641174	
2.70172	-0.768738	-3.22815	0.618286	
2.63672	-0.716553	-3.27454	0.62561	
2.46094	-0.730286	-3.24615	0.647278	
2.26959	-0.821838	-3.20892	0.629883	
2.14355	-0.896912	-3.18024	0.639954	
2.10358	-0.909424	-3.15613	0.616455	
2.13867	-0.861206	-3.14423	0.572815	
2.20551	-0.84198	-3.15491	0.547791	
2.25861	-0.805664	-3.19733	0.561523	
2.28027	-0.766907	-3.23242	0.545959	
2.34436	-0.65155	-3.20343	0.50293	
2.49115	-0.526733	-3.0719	0.516357	
2.66296	-0.466309	-2.86652	0.620117	
2.77222	-0.498657	-2.69073	0.725403	
2.79022	-0.602112	-2.66266	0.722656	
2.77252	-0.688782	-2.77679	0.615845	
2.75574	-0.70343	-2.91962	0.551758	
2.71912	-0.660095	-3.00568	0.588989	
2.67242	-0.655212	-2.99744	0.662231	
2.59125	-0.709534	-2.91199	0.592041	
2.5235	-0.760803	-2.789	0.380249	
2.51282	-0.771484	-2.65808	0.185547	
2.565	-0.802002	-2.55493	0.160522	
2.6236	-0.89325	-2.49725	0.390625	
2.62665	-1.0257	-2.49695	0.672607	
2.57721	-1.14807	-2.55249	0.839539	
2.54242	-1.23627	-2.57446	0.742493	
2.56409	-1.32935	-2.43408	0.408936	
2.65717	-1.39313	-2.09595	0.0125122	
2.82013	-1.43829	-1.71539	-0.309753	
3.02643	-1.44592	-1.4801	-0.403137	
3.24097	-1.39557	-1.49139	-0.267944	
3.35541	-1.26343	-1.71021	-0.0646973	
3.32031	-1.06232	-1.98975	0.161133	
3.13965	-0.904541	-2.19818	0.347595	
2.93823	-0.843506	-2.25952	0.450134	
2.81952	-0.824585	-2.18353	0.462952	
2.79999	-0.78064	-2.02209	0.384827	
2.83661	-0.699768	-1.8161	0.365601	
2.89429	-0.618591	-1.63635	0.427246	
2.96387	-0.551758	-1.53107	0.617065	
3.03406	-0.51239	-1.54572	0.698242	
3.07983	-0.507813	-1.62628	0.527344	
3.09235	-0.494995	-1.70837	0.227966	
3.08136	-0.448914	-1.74164	0.0991821	
3.07556	-0.375671	-1.73523	0.20752	
3.09601	-0.360107	-1.70563	0.369873	
3.14026	-0.392761	-1.6394	0.339355	
3.18481	-0.413513	-1.52802	0.154419	
3.22845	-0.43335	-1.40106	-0.00762939	
3.25409	-0.4953	-1.33881	-0.0509644	
3.24097	-0.584106	-1.39923	0.0393677	
3.16925	-0.646667	-1.56769	0.128174	
3.07648	-0.604858	-1.77399	0.128784	
3.04718	-0.48645	-1.92749	0.0512695	
3.08502	-0.367126	-2.01996	0.0244141	
3.12622	-0.305176	-2.07794	0.0372314	
3.12256	-0.306091	-2.12158	0.0247192	
3.08258	-0.343323	-2.13898	0.0378418	
3.08319	-0.400391	-2.11517	0.105591	
3.16467	-0.495911	-2.05719	0.438843	
3.30933	-0.617065	-1.97876	0.733948	
3.4787	-0.701599	-1.92261	0.812683	
3.67188	-0.732117	-1.87286	0.654602	
3.88611	-0.690613	-1.80298	0.489197	
4.06311	-0.579529	-1.68365	0.571899	
4.07318	-0.455933	-1.54602	0.848694	
3.86597	-0.344849	-1.45203	1.14197	
3.47931	-0.302124	-1.41357	1.32538	
3.06244	-0.299072	-1.38184	1.37726	
2.75604	-0.271912	-1.28906	1.49109	
2.63245	-0.255127	-1.16425	1.6629	
2.70233	-0.264587	-1.08704	1.83899	
2.83691	-0.330505	-1.13312	1.95679	
2.92267	-0.393066	-1.25458	2.04376	
2.9071	-0.427856	-1.37726	2.12402	
2.84027	-0.473022	-1.44379	2.1521	
2.76947	-0.520325	-1.46515	2.02576	
2.71729	-0.529175	-1.46454	1.78955	
2.65991	-0.475159	-1.44806	1.4682	
2.58728	-0.374756	-1.41998	1.21613	
2.56226	-0.309753	-1.36475	1.14166	
2.63123	-0.290833	-1.28967	1.1673	
2.76459	-0.318298	-1.18896	0.967712	
2.87872	-0.328979	-1.08307	0.718689	
2.92206	-0.270386	-0.98999	0.689087	
2.87231	-0.223999	-0.924988	1.01166	
2.75726	-0.242004	-0.900269	1.44958	
2.60803	-0.328674	-0.913696	1.58051	
2.50336	-0.351257	-1.01379	1.40137	
2.51343	-0.273132	-1.21918	1.19324	
2.57874	-0.161743	-1.51337	1.10748	
2.57507	-0.0942993	-1.8277	1.13464	
2.43866	-0.0665283	-2.05994	1.26587	
2.23541	0.0241089	-2.14264	1.48712	
2.07367	0.117493	-2.08313	1.651	
2.03217	0.215454	-1.96472	1.70502	
2.08069	0.272827	-1.88416	1.64124	
2.09259	0.350342	-1.87073	1.54694	
2.01233	0.542297	-1.92627	1.60919	
1.89392	0.760803	-2.0285	1.80481	
1.81427	0.891113	-2.09381	1.91528	
1.84143	0.827637	-2.11395	1.72546	
1.92596	0.644836	-2.03339	1.45172	
1.96747	0.471497	-1.89941	1.39557	
1.93359	0.379639	-1.74774	1.58203	
1.86157	0.457764	-1.5921	1.68121	
1.82007	0.631104	-1.44592	1.54327	
1.84174	0.756836	-1.35956	1.30463	
1.86737	0.67627	-1.40503	1.19171	
1.85577	0.46875	-1.6098	1.22101	
1.82434	0.327454	-1.89758	1.26038	
1.81885	0.332642	-2.13837	1.22345	
1.84906	0.38147	-2.23785	1.05652	
1.89484	0.429688	-2.18994	0.795288	
1.90552	0.473022	-2.0871	0.67688	
1.83105	0.519409	-2.04071	0.760803	
1.716	0.681763	-2.08588	0.993958	
1.64063	0.776367	-2.17987	1.24176	
1.64948	0.826416	-2.27753	1.27869	
1.71082	0.912476	-2.30652	1.28754	
1.73981	1.09192	-2.28241	1.28021	
1.70258	1.32996	-2.21954	1.39252	
1.61835	1.42303	-2.15668	1.51978	
1.54205	1.30585	-2.1048	1.57898	
1.4798	1.09009	-2.05231	1.48315	
1.46576	0.959167	-1.96594	1.22284	
1.45538	0.889893	-1.87683	0.862732	
1.40106	0.873108	-1.82678	0.620728	
1.27533	0.964966	-1.86188	0.567627	
1.10443	1.13098	-1.97327	0.728455	
1.01868	1.25854	-2.11639	0.901794	
1.07513	1.20514	-2.19971	1.008	
1.2265	1.02203	-2.20001	0.976868	
1.36841	0.859375	-2.14355	0.763245	
1.39374	0.927734	-2.07336	0.701599	
1.33636	1.14471	-1.99158	0.874939	
1.23566	1.44257	-1.90033	1.28784	
1.16821	1.62628	-1.80542	1.57532	
1.15692	1.65009	-1.74164	1.50299	
1.17584	1.53107	-1.69769	1.19751	
1.203	1.40778	-1.64246	0.968628	
1.20026	1.35651	-1.59454	0.844421	
1.15173	1.38153	-1.58569	0.787048	
1.07208	1.44257	-1.64093	0.764465	
1.00861	1.50085	-1.70837	0.731201	
0.991821	1.49963	-1.74957	0.730896	
1.06659	1.427	-1.71204	0.7901	
1.22314	1.2915	-1.63635	0.910645	
1.43555	1.14441	-1.58264	1.05988	
1.65833	1.03027	-1.58783	1.19324	
1.82037	0.970764	-1.66443	1.2384	
1.84143	0.941772	-1.75781	1.13007	
1.71997	0.894165	-1.81671	0.932922	
1.58539	0.828552	-1.77216	0.782776	
1.55792	0.795593	-1.65405	0.717468	
1.67114	0.758057	-1.52924	0.593262	
1.84021	0.740356	-1.46027	0.434875	
2.00134	0.650635	-1.46423	0.392761	
2.16095	0.526733	-1.53564	0.572815	
2.32574	0.527344	-1.69098	0.810852	
2.44598	0.699463	-1.87897	1.13678	
2.48657	0.99762	-2.03247	1.39343	
2.49908	1.2442	-2.09625	1.70135	
2.51953	1.29578	-2.10236	1.82678	
2.58392	1.15112	-2.09839	1.66992	
2.70355	0.906067	-2.0871	1.47095	
2.81403	0.686646	-2.08008	1.40442	
2.87048	0.614929	-2.08832	1.54114	
2.81006	0.712585	-2.17224	1.69678	
2.68219	0.888367	-2.25189	1.77124	
2.61597	1.01166	-2.229	1.72943	
2.65137	1.03516	-2.08954	1.59515	
2.70172	0.94574	-1.92902	1.50238	
2.70294	0.792847	-1.85486	1.39771	
2.69226	0.55481	-1.85608	1.19202	
2.74414	0.409546	-1.85883	0.872498	
2.85858	0.470276	-1.83411	0.71167	
2.91168	0.762634	-1.83136	0.903931	
2.80487	1.01776	-1.86676	1.2677	
2.55463	1.02081	-1.91986	1.44806	
2.31628	0.886536	-1.94672	1.44867	
2.20367	0.731201	-1.93085	1.32507	
2.26837	0.742798	-1.89575	1.34094	
2.42401	0.803223	-1.86127	1.56677	
2.54211	0.877075	-1.83319	1.83899	
2.54608	0.921021	-1.81488	1.98547	
2.42371	0.915527	-1.80664	1.83655	
2.26593	0.843201	-1.79993	1.48071	
2.15698	0.73761	-1.77399	1.18652	
2.1814	0.625	-1.67847	1.06873	
2.33948	0.533447	-1.50177	1.16333	
2.59644	0.430908	-1.29639	1.36719	
2.87903	0.379944	-1.1554	1.62415	
3.06061	0.381775	-1.10199	1.89728	
3.08624	0.414124	-1.14349	2.10602	
2.98096	0.395813	-1.23627	2.14447	
2.85553	0.290222	-1.36139	2.07733	
2.8299	0.103149	-1.4917	1.9751	
2.92755	0.0973511	-1.58478	2.02881	
3.10455	0.255127	-1.6098	2.18079	
3.26752	0.504761	-1.59546	2.28668	
3.29956	0.69397	-1.57928	2.24487	
3.19702	0.824585	-1.57013	2.1524	
3.02582	0.960693	-1.53351	2.14142	
2.90527	1.05469	-1.43829	2.10175	
2.88147	0.988159	-1.31592	2.02515	
2.90436	0.807495	-1.1908	1.88965	
2.9425	0.634155	-1.07758	1.87317	
3.00751	0.58075	-1.0083	1.94031	
3.08319	0.61554	-1.01227	2.01965	
3.12317	0.655518	-1.07452	2.0163	
3.10913	0.662537	-1.17065	1.99066	
3.0423	0.623169	-1.27625	1.93207	
2.96387	0.586853	-1.36627	1.99707	
2.92847	0.496826	-1.43341	2.1109	
2.98615	0.419312	-1.43616	2.1994	
3.1723	0.352173	-1.39557	2.25189	
3.42224	0.352173	-1.39191	2.22321	
3.59589	0.440369	-1.45447	2.18018	
3.59009	0.618591	-1.53229	2.12585	
3.41492	0.780029	-1.54755	2.02362	
3.18207	0.875854	-1.51764	1.88416	
3.05206	0.844116	-1.50146	1.83533	
3.12958	0.787964	-1.4978	1.92535	
3.36029	0.719604	-1.43799	2.02332	
3.58429	0.635071	-1.26709	1.96106	
3.70483	0.528564	-1.0141	1.71417	
3.70422	0.426636	-0.801086	1.40228	
3.638	0.368958	-0.742188	1.14746	
3.53912	0.35675	-0.861511	1.06262	
3.41095	0.406494	-1.08765	1.17859	
3.29102	0.467224	-1.29028	1.32507	
3.21594	0.525208	-1.39313	1.47736	
3.24005	0.522461	-1.38763	1.64795	
3.30902	0.466919	-1.34521	1.8869	
3.34717	0.380859	-1.33545	2.13379	
3.30872	0.320435	-1.3855	2.18536	
3.23364	0.309753	-1.44012	2.04132	
3.2077	0.329285	-1.44012	1.79352	
3.20984	0.348206	-1.41907	1.63086	
3.17413	0.406494	-1.43372	1.57776	
3.0838	0.574951	-1.5213	1.64948	
2.99866	0.715942	-1.61072	1.73157	
2.99652	0.747986	-1.5921	1.76483	
3.11127	0.624084	-1.43127	1.63055	
3.22693	0.486755	-1.17188	1.4151	
3.24921	0.50415	-0.901489	1.32935	
3.23273	0.583801	-0.672302	1.36932	
3.26172	0.624695	-0.558777	1.3739	
3.43109	0.552979	-0.567932	1.34247	
3.66516	0.451355	-0.686951	1.33179	
3.86627	0.382385	-0.847473	1.4505	
3.95691	0.320129	-0.979309	1.5451	
3.90717	0.279846	-1.06781	1.46759	
3.76129	0.286865	-1.13831	1.1554	
3.61023	0.353088	-1.19934	0.906677	
3.49792	0.444336	-1.26709	0.871887	
3.38593	0.566711	-1.35559	0.96405	
3.22876	0.692444	-1.46973	1.04584	
3.078	0.805359	-1.57715	1.04187	
3.00873	0.898132	-1.64307	1.11969	
3.00629	0.956116	-1.6626	1.26678	
3.02185	1.00891	-1.66779	1.38794	
3.00781	1.1322	-1.63605	1.34125	
2.98157	1.24908	-1.53046	1.17249	
2.95502	1.34369	-1.36292	0.916138	
2.92267	1.36322	-1.21307	0.66925	
2.88757	1.26526	-1.14868	0.474243	
2.9068	0.994873	-1.18835	0.316162	
2.96722	0.739746	-1.24939	0.256653	
2.98279	0.609436	-1.32568	0.277405	
2.8714	0.698242	-1.44836	0.450439	
2.62054	0.855408	-1.65771	0.655823	
2.34467	0.942688	-1.89301	0.72998	
2.14478	1.00708	-2.06848	0.662842	
2.04712	1.15051	-2.13318	0.517578	
2.00226	1.34857	-2.09259	0.421143	
1.97235	1.48224	-2.01355	0.283813	
1.95648	1.4505	-1.97357	-0.0210571	
1.94916	1.33942	-2.04346	-0.358887	
1.92749	1.25061	-2.18903	-0.371094	
1.87775	1.23383	-2.32819	-0.038147	
1.8158	1.27747	-2.35718	0.447388	
1.78558	1.29883	-2.27081	0.706177	
1.82098	1.35376	-2.1051	0.634766	
1.90399	1.37909	-1.93939	0.395203	
1.99097	1.39099	-1.8161	0.160522	
2.06757	1.34857	-1.77582	-0.010376	
2.10815	1.27655	-1.84448	-0.131531	
2.11273	1.22833	-1.96686	-0.192261	
2.02515	1.2207	-2.11609	-0.178833	
1.85974	1.297	-2.25555	-0.104675	
1.71906	1.43738	-2.38251	0.00396729	
1.65588	1.58813	-2.50366	0.0650024	
1.66473	1.716	-2.55554	0.0927734	
1.64093	1.81274	-2.52106	0.0283813	
1.54022	1.91254	-2.43011	-0.0994873	
1.39374	2.00378	-2.38495	-0.215759	
1.26251	2.02454	-2.44232	-0.352478	
1.19659	1.92444	-2.56805	-0.440369	
1.21399	1.75079	-2.67487	-0.460815	
1.29547	1.60675	-2.69501	-0.433044	
1.33881	1.58997	-2.65259	-0.326538	
1.31592	1.68518	-2.60071	-0.170288	
1.23383	1.82953	-2.59583	-0.0772095	
1.16394	1.83746	-2.62695	-0.0457764	
1.11938	1.71051	-2.6416	-0.0323486	
1.02844	1.50146	-2.62115	0.0158691	
0.87616	1.3678	-2.565	0.0537109	
0.709229	1.35345	-2.51801	0.00701904	
0.615234	1.40076	-2.51312	-0.113831	
0.610352	1.47705	-2.5708	-0.162354	
0.635376	1.54114	-2.67395	-0.0119019	
0.677185	1.57959	-2.76611	0.190125	
0.744934	1.5686	-2.83691	0.280151	
0.872803	1.49048	-2.9071	0.247803	
1.07513	1.40717	-2.99011	0.190735	
1.29944	1.34888	-3.05847	0.197144	
1.44623	1.36261	-3.07587	0.224915	
1.44989	1.44897	-3.00842	0.18158	
1.3208	1.59912	-2.86041	0.113525	
1.15967	1.71906	-2.68402	-0.0402832	
1.07239	1.77917	-2.53571	-0.150452	
1.06201	1.73981	-2.41058	-0.200806	
1.07239	1.68884	-2.28821	-0.1297	
1.03027	1.72058	-2.19635	-0.00152588	
0.930786	1.74927	-2.19513	0.141296	
0.839844	1.7334	-2.31628	0.270996	
0.80719	1.59393	-2.48901	0.357666	
0.845642	1.41327	-2.5943	0.327759	
0.914001	1.2912	-2.58728	0.210571	
0.950623	1.25732	-2.54456	-0.0253296	
0.938416	1.28448	-2.54486	-0.137939	
0.910034	1.35345	-2.5943	-0.112305	
0.918884	1.42334	-2.64404	0.0012207	
0.956726	1.48315	-2.68463	0.0640869	
0.985107	1.5448	-2.74628	0.0186157	
0.975037	1.55457	-2.81006	0.0228882	
0.957031	1.48224	-2.82928	0.00793457	
0.965881	1.34918	-2.75116	0.0271606	
1.00952	1.21307	-2.59186	0.0585938	
1.08185	1.16943	-2.38953	0.108032	
1.19385	1.22314	-2.14539	0.179443	
1.31805	1.30676	-1.91742	0.19165	
1.40411	1.36749	-1.78192	0.142822	
1.39221	1.40198	-1.81152	0.149231	
1.32324	1.45508	-1.93909	0.198669	
1.23413	1.53534	-2.07916	0.192871	
1.16547	1.59363	-2.20123	0.0808716	
1.09528	1.5976	-2.30194	-0.0643921	
1.04401	1.60278	-2.37579	-0.135803	
1.08154	1.64795	-2.39502	-0.085144	
1.2088	1.77948	-2.38403	-0.0350952	
1.3736	1.84479	-2.39929	-0.0234985	
1.49078	1.83167	-2.40723	-0.0317383	
1.51367	1.77277	-2.35931	0.0125122	
1.46057	1.77338	-2.26532	0.15686	
1.37726	1.87836	-2.17407	0.316772	
1.30646	1.97113	-2.16797	0.38269	
1.2677	1.93695	-2.22961	0.387268	
1.24878	1.81732	-2.31018	0.335083	
1.20728	1.66351	-2.39258	0.278015	
1.14624	1.5451	-2.47803	0.150146	
1.06506	1.47125	-2.56104	-0.0494385	
1.01288	1.39954	-2.60803	-0.101624	
1.03119	1.35162	-2.58484	0.0802612	
1.12732	1.3681	-2.51099	0.39032	
1.26892	1.43616	-2.46277	0.597839	
1.4093	1.54449	-2.48291	0.537415	
1.52496	1.66718	-2.54486	0.348206	
1.633	1.78284	-2.60529	0.178528	
1.75323	1.8692	-2.6474	-0.00854492	
1.86676	1.82709	-2.70599	-0.184937	
1.90826	1.67511	-2.82227	-0.299988	
1.83929	1.46088	-2.97272	-0.362854	
1.68304	1.28204	-3.09692	-0.423889	
1.58051	1.17096	-3.12073	-0.482178	
1.62018	1.15295	-3.05786	-0.59845	
1.80695	1.26984	-2.97455	-0.580139	
2.03217	1.52374	-2.92542	-0.432434	
2.18231	1.82953	-2.93518	-0.232239	
2.2168	2.05627	-2.98828	-0.0576782	
2.14752	2.10144	-3.05847	0.0762939	
2.03247	2.02881	-3.11005	0.207825	
1.91956	1.90308	-3.12164	0.361328	
1.84967	1.83716	-3.09052	0.391846	
1.83228	1.85852	-3.03436	0.303345	
1.88293	1.93207	-2.9837	0.148621	
2.02637	1.95679	-2.94067	-0.015564	
2.2644	1.84998	-2.85522	-0.154114	
2.5766	1.69281	-2.71057	-0.23407	
2.9007	1.51794	-2.53296	-0.275574	
3.13385	1.47278	-2.39929	-0.326538	
3.22845	1.5567	-2.29797	-0.385437	
3.19153	1.77338	-2.17133	-0.393982	
3.10455	2.04468	-2.00439	-0.257568	
3.07068	2.2467	-1.82861	-0.0448608	
3.08807	2.32788	-1.74225	0.0772095	
3.07465	2.30469	-1.74957	0.0985718	
2.96722	2.2287	-1.82281	0.055542	
2.7597	2.16553	-1.9455	0.0582886	
2.53876	2.16339	-2.09717	0.102234	
2.37946	2.21527	-2.25525	0.200195	
2.3111	2.29279	-2.38464	0.308838	
2.33124	2.33887	-2.49084	0.418701	
2.41638	2.28577	-2.565	0.407715	
2.49054	2.13562	-2.58301	0.326538	
2.49847	1.94702	-2.53143	0.228577	
2.42218	1.79077	-2.45789	0.0997925	
2.27051	1.73248	-2.42432	-0.124512	
2.04285	1.80725	-2.44751	-0.272217	
1.77948	1.91925	-2.47467	-0.211487	
1.54175	2.01508	-2.47192	0.134888	
1.39313	2.08649	-2.435	0.609436	
1.37573	2.08099	-2.39532	0.855713	
1.42487	2.06055	-2.35077	0.823669	
1.4682	2.00287	-2.3053	0.6427	
1.47308	1.91528	-2.25006	0.526428	
1.43311	1.9101	-2.22717	0.596313	
1.36505	1.9931	-2.25342	0.751953	
1.30402	2.12402	-2.3465	0.7724	
1.26801	2.25067	-2.45697	0.561523	
1.27502	2.3584	-2.54211	0.222473	
1.32904	2.44232	-2.54761	-0.0186157	
1.42151	2.52808	-2.44995	-0.0436401	
1.56921	2.53235	-2.29279	0.0704956	
1.73065	2.43317	-2.1698	0.134583	
1.83868	2.25067	-2.17072	0.0393677	
1.8457	2.03461	-2.28912	-0.212708	
1.75995	1.87042	-2.39563	-0.49469	
1.64459	1.75964	-2.3996	-0.621948	
1.50757	1.68945	-2.37579	-0.737	
1.36658	1.68701	-2.4054	-0.810242	
1.25336	1.78162	-2.49817	-0.834351	
1.20392	1.93359	-2.57874	-0.752563	
1.22711	2.05414	-2.58392	-0.592041	
1.31744	2.04193	-2.56256	-0.428772	
1.40045	1.9635	-2.55432	-0.311584	
1.4151	1.9101	-2.58087	-0.282898	
1.36353	1.92078	-2.62543	-0.306702	
1.24969	1.99432	-2.67426	-0.373535	
1.12	2.04681	-2.71271	-0.419312	
0.985413	2.06268	-2.74902	-0.375977	
0.904846	2.0752	-2.80426	-0.234985	
0.926208	2.17407	-2.87964	-0.0817871	
1.09528	2.24182	-2.97089	-0.0473022	
1.31592	2.23846	-3.02673	-0.0744629	
1.4447	2.15729	-3.02643	-0.108948	
1.39465	2.09534	-2.98126	-0.153198	
1.20483	2.10052	-2.9306	-0.179443	
1.00616	2.07031	-2.92755	-0.258789	
0.855408	1.95404	-3.00415	-0.320129	
0.725708	1.81152	-3.13232	-0.443726	
0.608521	1.7157	-3.23669	-0.608826	
0.556641	1.68213	-3.25745	-0.751343	
0.588074	1.68243	-3.21838	-0.787048	
0.672913	1.64856	-3.17017	-0.746765	
0.731201	1.55945	-3.15399	-0.698547	
0.690918	1.41846	-3.15674	-0.647583	
0.554199	1.30157	-3.16254	-0.49469	
0.362549	1.23779	-3.15887	-0.324402	
0.184937	1.23413	-3.15277	-0.212708	
0.0598145	1.30249	-3.13232	-0.169983	
0.0247192	1.34857	-3.10364	-0.169983	
0.090332	1.3446	-3.05481	-0.19989	
0.213318	1.25732	-2.97455	-0.345459	
0.351868	1.14838	-2.85614	-0.570984	
0.423889	1.06049	-2.73773	-0.839539	
0.462646	0.986633	-2.67181	-1.00861	
0.496521	0.951538	-2.67334	-0.978394	
0.549622	0.948181	-2.73773	-0.783386	
0.645447	1.00433	-2.82867	-0.54657	
0.732422	1.03882	-2.93121	-0.415649	
0.786743	1.00067	-2.98676	-0.383911	
0.777893	0.872498	-2.966	-0.431519	
0.752563	0.707397	-2.87445	-0.429993	
0.759888	0.576477	-2.7774	-0.300903	
0.831604	0.477295	-2.72827	-0.104065	
0.952454	0.423584	-2.74841	0.0289917	
1.03729	0.375366	-2.81616	0.0332642	
1.04858	0.344543	-2.92816	-0.11261	
0.9552	0.392761	-3.08899	-0.236511	
0.808716	0.465088	-3.27301	-0.237732	
0.672913	0.524597	-3.39417	-0.162964	
0.62439	0.53772	-3.36151	0.0405884	
0.6427	0.507813	-3.18878	0.196228	
0.661926	0.50293	-2.96356	0.307922	
0.617981	0.562439	-2.80975	0.322266	
0.538025	0.65094	-2.78473	0.284729	
0.502014	0.733643	-2.8598	0.26062	
0.534668	0.789185	-2.9892	0.275269	
0.600891	0.757751	-3.13782	0.322876	
0.640869	0.672913	-3.29254	0.350342	
0.635986	0.608521	-3.4494	0.448303	
0.58197	0.549011	-3.58246	0.548096	
0.498352	0.545349	-3.67798	0.59845	
0.454407	0.55481	-3.68164	0.561829	
0.533752	0.605164	-3.54889	0.493774	
0.71991	0.687561	-3.28369	0.531311	
0.904236	0.767822	-2.93549	0.673828	
0.969543	0.829468	-2.64465	0.880737	
0.889587	0.849915	-2.53204	1.00311	
0.697632	0.840149	-2.61719	1.00677	
0.441895	0.796204	-2.81921	0.888367	
0.180664	0.722046	-3.01697	0.657654	
0.0195313	0.627441	-3.14117	0.530701	
-0.00671387	0.541077	-3.20801	0.594788	
0.0643921	0.513611	-3.26111	0.767517	
0.155334	0.506287	-3.31482	0.898743	
0.221558	0.486145	-3.36426	0.896912	
0.310059	0.447083	-3.41949	0.845337	
0.386353	0.442505	-3.48694	0.819702	
0.415649	0.50415	-3.56598	0.784912	
0.392151	0.565796	-3.60779	0.86731	
0.374146	0.580444	-3.60657	1.06476	
0.402832	0.577393	-3.60565	1.30402	
0.447693	0.65979	-3.64716	1.46667	
0.446777	0.760498	-3.73016	1.42517	
0.382385	0.769958	-3.82233	1.27045	
0.329895	0.611877	-3.83301	1.1441	
0.332642	0.410461	-3.74115	1.05011	
0.394287	0.290222	-3.5965	1.03577	
0.448303	0.324402	-3.49396	1.01776	
0.462952	0.489197	-3.48206	1.06201	
0.450439	0.641174	-3.5672	1.11877	
0.447083	0.643921	-3.68378	1.10443	
0.47821	0.473938	-3.76953	1.01227	
0.562439	0.241394	-3.77869	0.919495	
0.666504	0.126038	-3.69781	0.892029	
0.726929	0.166321	-3.58185	0.959778	
0.711975	0.326538	-3.51288	1.06598	
0.664063	0.465698	-3.5318	1.11389	
0.655212	0.547791	-3.58643	1.06232	
0.714417	0.665588	-3.61786	1.05103	
0.816345	0.736389	-3.56293	1.13586	
0.917969	0.733337	-3.45551	1.33728	
0.959167	0.621643	-3.33618	1.54053	
0.89386	0.489502	-3.23334	1.6272	
0.75531	0.416565	-3.16681	1.60217	
0.670166	0.377502	-3.14514	1.52008	
0.712891	0.357971	-3.1665	1.54877	
0.822144	0.362549	-3.24127	1.67969	
0.870056	0.418701	-3.34076	1.87408	
0.823669	0.48645	-3.39783	2.005	
0.762939	0.510864	-3.39386	1.95068	
0.783386	0.502014	-3.34961	1.93512	
0.876465	0.46936	-3.28857	2.05322	
0.998535	0.428162	-3.21777	2.23999	
1.07269	0.361023	-3.13507	2.31201	
1.05621	0.263062	-3.07953	2.24121	
0.939941	0.143127	-3.06335	2.06512	
0.79834	0.0167847	-3.04932	1.83289	
0.733643	-0.112915	-2.966	1.5451	
0.769958	-0.133362	-2.8186	1.25641	
0.827942	-0.106812	-2.72217	1.03394	
0.78949	-0.0430298	-2.72827	0.89447	
0.691833	-0.0378418	-2.79144	0.849609	
0.6073	-0.0582886	-2.83722	0.932922	
0.588379	-0.0354004	-2.84119	1.01868	
0.591125	0.0735474	-2.84271	1.07513	
0.618896	0.224609	-2.85858	1.12152	
0.701294	0.352173	-2.85736	1.18347	
0.850525	0.455017	-2.84027	1.35162	
1.01715	0.48645	-2.82654	1.49475	
1.13678	0.485535	-2.82532	1.65131	
1.21552	0.446167	-2.82379	1.80023	
1.30188	0.376587	-2.80701	1.93848	
1.3858	0.309448	-2.78564	1.98364	
1.42639	0.228271	-2.77924	1.92047	
1.409	0.113831	-2.75513	1.80969	
1.34918	-0.010376	-2.70294	1.73431	
1.2912	-0.124512	-2.63611	1.70868	
1.2085	-0.204468	-2.59277	1.70563	
1.06171	-0.222473	-2.61292	1.6864	
0.863342	-0.164795	-2.70569	1.65771	
0.65979	-0.0949097	-2.8656	1.59454	
0.506592	-0.0558472	-3.03711	1.48468	
0.405273	-0.112305	-3.17352	1.44745	
0.321045	-0.157471	-3.26111	1.4978	
0.248108	-0.107422	-3.27301	1.67786	
0.166016	0.0158691	-3.22479	1.94855	
0.0808716	0.115967	-3.17474	2.10846	
-0.00244141	0.12085	-3.17719	2.18353	
-0.0640869	0.0357056	-3.23608	2.12036	
-0.0817871	-0.104675	-3.28766	1.97144	
-0.0561523	-0.232849	-3.27606	1.78131	
0.000610352	-0.322266	-3.21198	1.59729	
0.0521851	-0.336304	-3.14606	1.49109	
0.0546265	-0.289307	-3.10272	1.41205	
0.00244141	-0.169678	-3.10364	1.40045	
-0.0769043	-0.0845337	-3.1488	1.39282	
-0.142517	-0.0384521	-3.21777	1.37909	
-0.194397	-0.0692749	-3.29163	1.37787	
-0.249939	-0.114746	-3.3255	1.36871	
-0.316162	-0.157471	-3.34442	1.3858	
-0.329285	-0.145264	-3.36884	1.49445	
-0.263977	-0.141602	-3.40485	1.70044	
-0.142212	-0.158386	-3.44025	1.91315	
-0.0320435	-0.205688	-3.46069	2.02484	
0.022583	-0.241699	-3.46313	1.98364	
0.0457764	-0.20752	-3.44269	1.85455	
0.0204468	-0.152588	-3.42743	1.70898	
-0.0634766	-0.0979614	-3.42896	1.58112	
-0.18158	-0.0561523	-3.43903	1.52161	
-0.286255	-0.00793457	-3.45551	1.55365	
-0.350647	0.100403	-3.46283	1.62842	
-0.403748	0.149841	-3.47778	1.72882	
-0.457458	0.0906372	-3.52997	1.72943	
-0.511475	-0.153503	-3.59589	1.56982	
-0.549927	-0.409851	-3.65021	1.39038	
-0.552368	-0.516357	-3.66791	1.28662	
-0.531311	-0.435181	-3.69232	1.35529	
-0.519714	-0.267334	-3.73199	1.52832	
-0.525818	-0.15686	-3.77625	1.72485	
-0.575867	-0.157471	-3.75702	1.8399	
-0.637512	-0.260315	-3.67035	1.77856	
-0.6604	-0.413208	-3.56628	1.60858	
-0.610046	-0.530396	-3.49823	1.44379	
-0.495911	-0.534668	-3.48022	1.42365	
-0.417175	-0.451965	-3.50922	1.59241	
-0.449524	-0.310059	-3.56232	1.75385	
-0.52948	-0.0985718	-3.63464	1.79474	
-0.542603	0.0643921	-3.68439	1.68152	
-0.475464	0.126953	-3.65906	1.46973	
-0.421753	0.0439453	-3.53668	1.28632	
-0.472717	-0.126038	-3.40179	1.18896	
-0.582581	-0.238647	-3.32947	1.21185	
-0.681152	-0.247192	-3.33221	1.23566	
-0.714417	-0.203552	-3.34961	1.21094	
-0.736389	-0.195618	-3.33557	1.1557	
-0.797119	-0.242615	-3.31146	1.07574	
-0.857544	-0.284424	-3.26813	1.13098	
-0.862427	-0.239563	-3.19214	1.3028	
-0.800781	-0.116882	-3.1073	1.55121	
-0.733032	-0.0201416	-3.07861	1.68884	
-0.693054	-0.0210571	-3.1189	1.61041	
-0.667114	-0.0973511	-3.17963	1.4621	
-0.651245	-0.130615	-3.19824	1.40076	
-0.718384	-0.198669	-3.16467	1.40656	
-0.859985	-0.27771	-3.09631	1.44501	
-0.979919	-0.420532	-3.02063	1.46027	
-0.983887	-0.514221	-2.96631	1.49597	
-0.905151	-0.516968	-2.95929	1.48071	
-0.827942	-0.463257	-2.9837	1.51093	
-0.832214	-0.422363	-3.01392	1.51611	
-0.865784	-0.381165	-3.02338	1.61499	
-0.885925	-0.341187	-2.98706	1.7392	
-0.897217	-0.327454	-2.94525	1.80603	
-0.887146	-0.417175	-2.9071	1.83411	
-0.824585	-0.580444	-2.88025	1.83777	
-0.690613	-0.732422	-2.83875	1.78436	
-0.496826	-0.797119	-2.73254	1.72058	
-0.328369	-0.742188	-2.61932	1.68732	
-0.267029	-0.613403	-2.56195	1.72974	
-0.339355	-0.480652	-2.61078	1.74652	
-0.46936	-0.39917	-2.71759	1.58661	
-0.6073	-0.378418	-2.79449	1.33362	
-0.705261	-0.402527	-2.78717	1.24359	
-0.789185	-0.415039	-2.70111	1.40076	
-0.802917	-0.399475	-2.54425	1.68335	
-0.722351	-0.342712	-2.35931	1.85913	
-0.561829	-0.350037	-2.2229	1.81	
-0.406799	-0.427551	-2.20093	1.52222	
-0.319824	-0.608215	-2.3233	1.2381	
-0.302429	-0.807495	-2.50214	1.06659	
-0.298767	-0.866089	-2.6474	1.10168	
-0.275269	-0.748596	-2.67944	1.32324	
-0.167236	-0.531006	-2.59125	1.56403	
-0.0128174	-0.348816	-2.46063	1.70807	
0.0949097	-0.318298	-2.37183	1.71631	
0.105591	-0.392456	-2.36633	1.5506	
0.0408936	-0.470581	-2.45056	1.30219	
0.00976563	-0.483398	-2.58392	1.14166	
0.0759888	-0.410156	-2.71942	1.10443	
0.190125	-0.265198	-2.76367	1.13983	
0.263062	-0.0628662	-2.68097	1.19476	
0.24353	0.055542	-2.50854	1.19965	
0.177307	0.0674438	-2.32635	1.12457	
0.127563	-0.0387573	-2.17743	0.971375	
0.0897217	-0.150452	-2.07397	0.8255	
-0.00610352	-0.188904	-2.02667	0.79071	
-0.151062	-0.17334	-2.05994	0.845337	
-0.236206	-0.170898	-2.12555	0.844116	
-0.154724	-0.222473	-2.17834	0.755005	
0.0787354	-0.32074	-2.18781	0.565186	
0.308533	-0.496521	-2.18048	0.415649	
0.412292	-0.711365	-2.2168	0.39917	
0.385132	-0.91095	-2.30621	0.585327	
0.299988	-1.02203	-2.41272	0.878296	
0.280151	-1.026	-2.47498	1.0733	
0.338135	-1.00769	-2.47223	1.08154	
0.437012	-0.997009	-2.45972	1.0022	
0.510864	-1.0141	-2.48535	0.954285	
0.531311	-0.974121	-2.52838	0.975342	
0.519409	-0.831299	-2.53113	0.963745	
0.524292	-0.665588	-2.43286	0.981445	
0.556641	-0.562439	-2.26379	1.06659	
0.598755	-0.586853	-2.14478	1.18256	
0.626526	-0.669556	-2.18323	1.21613	
0.635681	-0.704041	-2.37305	1.16455	
0.625305	-0.678406	-2.58759	1.20392	
0.583496	-0.668945	-2.71179	1.36108	
0.477295	-0.671997	-2.69623	1.53534	
0.33844	-0.671387	-2.58728	1.59882	
0.283813	-0.656738	-2.4408	1.54572	
0.35614	-0.656128	-2.33032	1.46118	
0.496826	-0.697021	-2.2995	1.43738	
0.559387	-0.781555	-2.34955	1.36719	
0.513611	-0.875854	-2.46124	1.2149	
0.498047	-0.924683	-2.5769	1.09772	
0.637512	-0.863647	-2.67242	1.13129	
0.869141	-0.733032	-2.72705	1.28265	
1.00067	-0.647278	-2.71729	1.36688	
0.921631	-0.657349	-2.63062	1.32202	
0.727844	-0.715332	-2.50641	1.20026	
0.545349	-0.739441	-2.43134	1.10291	
0.435791	-0.662231	-2.45667	1.15753	
0.384827	-0.523071	-2.57751	1.34155	
0.380859	-0.393066	-2.71759	1.54297	
0.411377	-0.406189	-2.78442	1.60767	
0.432434	-0.470276	-2.771	1.47369	
0.405273	-0.506897	-2.73682	1.3269	
0.339661	-0.421753	-2.74719	1.28418	
0.310364	-0.285645	-2.8064	1.34735	
0.334473	-0.240479	-2.87964	1.35651	
0.366211	-0.3302	-2.94495	1.3324	
0.350037	-0.480957	-3.01453	1.35559	
0.293579	-0.554504	-3.08197	1.37024	
0.284424	-0.498352	-3.08899	1.31104	
0.380249	-0.323181	-3.02185	1.21826	
0.569763	-0.298767	-2.93823	1.17157	
0.721741	-0.422668	-2.91962	1.15295	
0.725403	-0.639343	-3.0127	1.14929	
0.581055	-0.789185	-3.15643	1.11359	
0.385437	-0.843201	-3.24799	1.12396	
0.237122	-0.881042	-3.25958	1.19049	
0.180664	-0.935059	-3.14941	1.31744	
0.187988	-0.9552	-3.00262	1.43829	
0.206604	-0.914917	-2.90375	1.48071	
0.188293	-0.814819	-2.89185	1.41785	
0.110779	-0.718384	-2.96021	1.30219	
0.00946045	-0.689087	-3.06519	1.21033	
-0.0436401	-0.693665	-3.14972	1.20758	
0.0149536	-0.701294	-3.16742	1.25824	
0.193481	-0.653992	-3.1131	1.29303	
0.46936	-0.558777	-3.00629	1.23932	
0.765686	-0.478516	-2.91046	1.2146	
0.999451	-0.43457	-2.86377	1.24817	
1.10443	-0.40863	-2.84912	1.29059	
1.06659	-0.400085	-2.83569	1.19171	
0.924988	-0.424805	-2.81494	0.906067	
0.728455	-0.483704	-2.81403	0.622253	
0.536804	-0.517273	-2.8363	0.450439	
0.408936	-0.450134	-2.83051	0.498657	
0.386353	-0.341187	-2.72522	0.707092	
0.481873	-0.263062	-2.55676	0.889587	
0.623474	-0.231323	-2.40356	1.02448	
0.714417	-0.192566	-2.34589	0.969238	
0.706787	-0.159302	-2.37579	0.834351	
0.634155	-0.16449	-2.43958	0.736389	
0.582275	-0.203857	-2.47467	0.690613	
0.578918	-0.222778	-2.42401	0.653687	
0.610046	-0.181885	-2.2699	0.616455	
0.600281	-0.108643	-2.09381	0.570984	
0.527344	-0.102234	-1.99768	0.51239	
0.421448	-0.185242	-2.05841	0.498657	
0.366211	-0.290833	-2.21222	0.521545	
0.431213	-0.252991	-2.36023	0.620117	
0.582581	-0.100708	-2.43195	0.689697	
0.712585	0.090332	-2.42615	0.758362	
0.776672	0.2005	-2.39258	0.708313	
0.791626	0.205688	-2.37579	0.577698	
0.847168	0.164185	-2.38007	0.434875	
0.936584	0.0900269	-2.37488	0.395813	
1.00006	0.00152588	-2.34863	0.357361	
0.979614	-0.0756836	-2.27142	0.256042	
0.920715	-0.102844	-2.1875	0.138245	
0.896301	-0.0350952	-2.15759	0.24231	
0.936279	0.0527954	-2.20612	0.493469	
0.993042	0.0958252	-2.3233	0.697021	
0.961304	0.0558472	-2.43591	0.716553	
0.881042	0.0588989	-2.44171	0.644836	
0.826416	0.0875854	-2.36969	0.622559	
0.855713	0.0939941	-2.258	0.670471	
0.92865	-0.0231934	-2.16675	0.637207	
0.974426	-0.213928	-2.10968	0.608826	
0.967407	-0.360718	-2.03522	0.669861	
0.950928	-0.422974	-1.93634	0.864258	
0.957947	-0.441589	-1.84662	1.02356	
0.997925	-0.41626	-1.80756	1.04767	
1.09589	-0.338745	-1.84479	0.904846	
1.21613	-0.22644	-1.94672	0.62561	
1.34369	-0.144348	-2.03979	0.308533	
1.45233	-0.154114	-2.06177	0.235901	
1.49872	-0.198364	-2.05597	0.369263	
1.47125	-0.206299	-2.0752	0.628357	
1.35803	-0.170898	-2.11884	0.730591	
1.20605	-0.188293	-2.10449	0.566711	
1.09863	-0.248718	-1.99615	0.343628	
1.08063	-0.263367	-1.84174	0.33783	
1.12244	-0.171814	-1.72791	0.521851	
1.1496	-0.0604248	-1.65985	0.755005	
1.12579	-0.0765991	-1.58325	0.819092	
1.09619	-0.183411	-1.4801	0.630188	
1.11115	-0.193787	-1.35986	0.358276	
1.16058	-0.112305	-1.30646	0.13031	
1.18866	-0.0460815	-1.3501	0.0888062	
1.18652	-0.0424194	-1.474	0.246277	
1.20331	-0.0906372	-1.60553	0.471191	
1.25549	-0.0778198	-1.68243	0.61554	
1.32538	-0.0509644	-1.71112	0.629272	
1.37848	-0.0375366	-1.75903	0.475769	
1.44348	0.00335693	-1.84174	0.349426	
1.50909	0.109863	-1.94244	0.359802	
1.56921	0.242004	-2.04681	0.474243	
1.604	0.321045	-2.12524	0.567627	
1.63483	0.316772	-2.16187	0.552979	
1.71753	0.241089	-2.13348	0.447083	
1.85211	0.158081	-2.07184	0.340271	
2.02515	0.0839233	-2.02728	0.342712	
2.16644	0.0448608	-2.01233	0.378113	
2.21069	0.0570679	-1.98395	0.41748	
2.12433	0.0698853	-1.9162	0.350952	
1.96991	0.0640869	-1.82373	0.174866	
1.86584	-0.0289917	-1.73248	0.141907	
1.90613	-0.200806	-1.65619	0.232239	
2.06543	-0.351257	-1.61591	0.439148	
2.18628	-0.487671	-1.61774	0.513	
2.1698	-0.537415	-1.65649	0.366516	
2.00195	-0.438232	-1.69647	0.0793457	
1.77399	-0.305786	-1.73035	-0.202942	
1.59943	-0.217285	-1.76086	-0.415039	
1.52832	-0.248413	-1.78619	-0.475464	
1.56586	-0.317078	-1.80145	-0.437012	
1.65527	-0.303345	-1.80145	-0.341797	
1.72394	-0.26947	-1.81793	-0.298767	
1.75049	-0.287476	-1.84753	-0.316772	
1.78162	-0.389404	-1.88293	-0.402222	
1.8399	-0.515442	-1.90399	-0.48645	
1.91101	-0.600281	-1.8927	-0.560303	
1.9812	-0.613403	-1.88751	-0.667419	
2.05719	-0.570984	-1.92871	-0.844116	
2.15546	-0.457764	-1.97205	-1.04553	
2.23846	-0.290833	-1.98029	-1.09497	
2.28119	-0.150757	-1.96655	-0.986328	
2.28516	-0.122986	-1.96594	-0.836487	
2.30347	-0.230713	-1.97784	-0.778809	
2.34436	-0.396118	-1.96777	-0.889893	
2.35657	-0.535889	-1.91284	-1.13739	
2.26624	-0.611267	-1.82251	-1.34186	
2.08679	-0.648499	-1.72699	-1.47339	
1.95282	-0.66925	-1.66473	-1.52008	
2.07062	-0.751953	-1.61591	-1.49902	
2.45483	-0.895996	-1.56647	-1.38977	
2.9184	-1.05988	-1.52161	-1.24023	
3.21472	-1.26495	-1.51306	-1.08215	
3.22388	-1.32813	-1.57196	-0.993042	
3.07037	-1.26587	-1.6571	-1.0022	
2.88727	-1.06384	-1.72241	-1.04767	
2.73804	-0.906372	-1.7395	-1.1203	
2.62604	-0.905151	-1.70593	-1.14563	
2.5177	-1.02142	-1.66565	-1.19476	
2.44476	-1.12091	-1.65192	-1.16821	
2.43439	-1.13098	-1.68457	-1.13342	
2.49725	-1.06018	-1.7337	-1.08887	
2.62421	-0.942383	-1.78314	-1.04034	
2.77527	-0.860901	-1.80573	-0.925903	
2.93518	-0.829773	-1.76849	-0.722656	
3.07861	-0.864563	-1.6748	-0.53833	
3.20587	-0.940857	-1.57318	-0.41626	
3.31116	-1.01532	-1.52557	-0.495605	
3.40027	-1.07758	-1.54602	-0.63446	
3.44208	-1.11816	-1.5976	-0.791931	
3.43201	-1.11938	-1.63391	-0.809937	
3.39111	-1.07269	-1.64734	-0.713196	
3.31482	-1.00067	-1.62811	-0.666809	
3.22144	-0.943604	-1.58356	-0.674744	
3.07007	-0.883179	-1.56128	-0.818176	
2.88818	-0.762634	-1.62598	-0.989685	
2.73315	-0.542603	-1.76605	-1.00037	
2.65106	-0.26825	-1.96014	-0.874939	
2.64038	-0.0149536	-2.1405	-0.697937	
2.64435	0.190125	-2.28149	-0.64209	
2.66174	0.343323	-2.37	-0.747681	
2.70142	0.450439	-2.42004	-0.924988	
2.78229	0.474548	-2.45819	-1.13983	
2.89948	0.375977	-2.51556	-1.23688	
3.04108	0.198364	-2.58575	-1.21552	
3.1897	0.0827026	-2.65259	-1.08582	
3.30811	0.110474	-2.70325	-0.973206	
3.36273	0.228577	-2.72614	-0.997314	
3.34229	0.27771	-2.72308	-1.05652	
3.28522	0.22583	-2.69989	-1.06903	
3.17871	0.118408	-2.66296	-0.980225	
3.04779	0.0378418	-2.60834	-0.890503	
2.93671	0.020752	-2.56653	-0.856628	
2.91687	0.0891113	-2.56531	-0.887146	
2.94739	0.187988	-2.62115	-1.00159	
2.95166	0.210266	-2.75269	-1.17493	
2.85278	0.163269	-2.93793	-1.26953	
2.75787	0.0695801	-3.09448	-1.15875	
2.76917	0.0424194	-3.18542	-0.935364	
2.88208	0.100403	-3.18451	-0.795288	
3.00354	0.231628	-3.17108	-0.857849	
3.0484	0.350952	-3.19916	-1.0553	
3.03864	0.411682	-3.26019	-1.28784	
3.04596	0.392456	-3.30017	-1.45294	
3.06854	0.378113	-3.30475	-1.54419	
3.11218	0.355835	-3.29346	-1.51154	
3.09937	0.312805	-3.30994	-1.38336	
2.99347	0.223083	-3.36487	-1.24634	
2.79266	0.0769043	-3.45642	-1.27167	
2.53906	-0.0582886	-3.50586	-1.49719	
2.28912	-0.138245	-3.44482	-1.86401	
2.07489	-0.205383	-3.25928	-2.22321	
1.92719	-0.271301	-3.02063	-2.32666	
1.85577	-0.341492	-2.86072	-2.23175	
1.82343	-0.29541	-2.86163	-2.11365	
1.79382	-0.166016	-3.01483	-2.11273	
1.77368	-0.0732422	-3.23456	-2.23541	
1.76971	-0.12146	-3.40729	-2.30133	
1.78711	-0.266113	-3.50739	-2.20398	
1.80206	-0.333862	-3.54492	-1.92566	
1.79749	-0.227051	-3.55835	-1.57928	
1.79626	-0.0387573	-3.55835	-1.3446	
1.83472	0.146484	-3.55072	-1.26862	
1.9632	0.246582	-3.52997	-1.20117	
2.10785	0.273132	-3.5202	-0.989075	
2.13104	0.275574	-3.51135	-0.741577	
1.96869	0.357056	-3.50891	-0.644836	
1.70074	0.496826	-3.48907	-0.72998	
1.45325	0.629578	-3.45367	-0.925293	
1.27258	0.707397	-3.39355	-1.05072	
1.14471	0.706482	-3.29437	-1.0907	
1.0672	0.64209	-3.20404	-1.09558	
1.04919	0.605469	-3.18634	-1.02142	
1.06964	0.588074	-3.29498	-0.945129	
1.11359	0.574951	-3.50067	-1.04279	
1.13953	0.477905	-3.7088	-1.21948	
1.16699	0.344543	-3.84308	-1.28113	
1.23047	0.285645	-3.86658	-1.06537	
1.33301	0.332947	-3.80493	-0.708618	
1.46027	0.369873	-3.70667	-0.517273	
1.57227	0.309753	-3.63892	-0.52063	
1.62994	0.184937	-3.63678	-0.55603	
1.62659	0.0952148	-3.68469	-0.494385	
1.57867	0.0836182	-3.73444	-0.343628	
1.5567	0.159302	-3.74237	-0.258484	
1.60797	0.25177	-3.69385	-0.307312	
1.68793	0.303345	-3.60413	-0.428467	
1.71478	0.259094	-3.48236	-0.553284	
1.68579	0.175171	-3.3252	-0.686951	
1.65588	0.176086	-3.12012	-0.794067	
1.67023	0.366516	-2.86346	-0.844116	
1.72424	0.631104	-2.6181	-0.812988	
1.77704	0.775757	-2.45636	-0.75531	
1.88202	0.776978	-2.34711	-0.647888	
2.02881	0.710449	-2.23755	-0.50293	
2.2226	0.731506	-2.05811	-0.353394	
2.42126	0.792847	-1.82587	-0.267639	
2.58148	0.862427	-1.6626	-0.167847	
2.67487	0.857849	-1.65894	-0.0198364	
2.69958	0.819702	-1.8042	0.110779	
2.68158	0.715942	-2.00287	0.124207	
2.65747	0.573425	-2.15698	-0.0854492	
2.64862	0.500488	-2.22382	-0.327454	
2.5824	0.528564	-2.21039	-0.477905	
2.46552	0.627136	-2.14752	-0.553894	
2.31262	0.684814	-2.08191	-0.648193	
2.18719	0.66925	-2.06268	-0.729065	
2.10815	0.611572	-2.13715	-0.752869	
1.99097	0.562439	-2.30713	-0.623169	
1.78925	0.488281	-2.54272	-0.480347	
1.58051	0.397339	-2.7713	-0.361023	
1.50421	0.332031	-2.93945	-0.382996	
1.63147	0.340881	-3.04749	-0.526428	
1.86096	0.420532	-3.09937	-0.657043	
2.00684	0.529785	-3.08258	-0.743103	
2.01569	0.61615	-2.9892	-0.778198	
1.97357	0.680237	-2.82959	-0.757751	
2.00317	0.690002	-2.71088	-0.799255	
2.12555	0.691833	-2.69379	-0.891418	
2.24884	0.671997	-2.73254	-0.989685	
2.29675	0.647583	-2.73499	-1.09497	
2.24152	0.597839	-2.63397	-1.13708	
2.14172	0.593567	-2.46063	-1.11328	
2.04987	0.699768	-2.30957	-0.921326	
1.97998	0.828552	-2.25616	-0.698547	
1.93054	0.907288	-2.35016	-0.610352	
1.91803	0.899963	-2.52075	-0.771179	
1.97662	0.89386	-2.67365	-0.991516	
2.0752	0.925293	-2.7417	-0.967712	
2.10266	0.939331	-2.74811	-0.747986	
2.00836	0.932617	-2.73895	-0.56366	
1.86462	0.897522	-2.72064	-0.641785	
1.82281	0.877686	-2.66785	-1.01776	
1.94061	0.914307	-2.54791	-1.29913	
2.13104	0.983582	-2.38068	-1.38519	
2.27295	0.991211	-2.21039	-1.27045	
2.3111	0.847168	-2.09625	-1.08826	
2.29248	0.542297	-2.04773	-1.08673	
2.27051	0.220032	-2.03186	-1.17615	
2.22839	0.0161743	-1.97723	-1.3028	
2.10114	-0.00793457	-1.87897	-1.32629	
1.87714	0.1474	-1.8222	-1.32568	
1.66077	0.396729	-1.84082	-1.32172	
1.52985	0.62561	-1.90826	-1.34796	
1.52008	0.794983	-1.94977	-1.40228	
1.60217	0.920715	-1.90277	-1.52893	
1.71417	0.952759	-1.80206	-1.64551	
1.83044	0.932007	-1.67969	-1.67542	
1.92749	0.886536	-1.59546	-1.54877	
2.00806	0.948181	-1.56677	-1.30371	
2.07367	1.09772	-1.56647	-1.05255	
2.10541	1.19476	-1.53534	-0.997925	
2.0874	1.20026	-1.43372	-1.05072	
2.04681	1.17554	-1.28052	-1.11694	
2.01294	1.17401	-1.13861	-1.10138	
1.97937	1.09802	-1.06598	-1.10565	
1.94916	0.989685	-1.05774	-1.22253	
1.92505	0.911255	-1.08368	-1.34369	
1.89697	0.968018	-1.11969	-1.33575	
1.8515	1.11481	-1.18164	-1.21826	
1.78589	1.22559	-1.28998	-1.15356	
1.72699	1.19324	-1.44867	-1.25732	
1.67389	1.08612	-1.61865	-1.45172	
1.61316	0.973816	-1.7627	-1.59454	
1.53503	0.934753	-1.83502	-1.68854	
1.48743	0.966492	-1.82587	-1.70837	
1.52618	1.03119	-1.74377	-1.67755	
1.68854	1.13007	-1.63971	-1.58417	
1.93878	1.27106	-1.56555	-1.54022	
2.20734	1.37634	-1.52893	-1.47858	
2.42279	1.4389	-1.50726	-1.29364	
2.547	1.40869	-1.49139	-1.00555	
2.57965	1.32141	-1.49414	-0.73761	
2.57904	1.1734	-1.4978	-0.701904	
2.61841	0.918274	-1.44714	-0.923462	
2.78168	0.698242	-1.32172	-1.19537	
3.0545	0.568542	-1.17462	-1.3324	
3.30017	0.551758	-1.08124	-1.23535	
3.3902	0.553589	-1.06628	-1.0907	
3.25806	0.487366	-1.08826	-1.02264	
3.00415	0.397949	-1.10352	-1.09802	
2.7655	0.381165	-1.13129	-1.22284	
2.63916	0.441284	-1.16486	-1.30707	
2.65167	0.542297	-1.20453	-1.27716	
2.72125	0.563354	-1.2088	-1.21979	
2.78229	0.516968	-1.15082	-1.24847	
2.81586	0.451355	-1.05194	-1.34186	
2.83875	0.458984	-0.950012	-1.40747	
2.87933	0.514832	-0.897217	-1.38153	
2.90833	0.614319	-0.888977	-1.27899	
2.91565	0.654602	-0.918579	-1.19232	
2.91199	0.553894	-0.968323	-1.22711	
2.94006	0.406189	-0.969543	-1.32904	
3.01117	0.305481	-0.88623	-1.40991	
3.08929	0.357971	-0.724792	-1.35468	
3.13477	0.450134	-0.557556	-1.16211	
3.11584	0.431824	-0.486755	-0.963745	
3.04077	0.348816	-0.566406	-0.937195	
2.94586	0.252991	-0.7901	-1.05194	
2.8299	0.24353	-1.07056	-1.17004	
2.7356	0.341797	-1.29364	-1.23474	
2.67731	0.447388	-1.3858	-1.23077	
2.68402	0.584412	-1.36383	-1.19781	
2.75665	0.748901	-1.26434	-0.997314	
2.89551	0.914001	-1.10962	-0.670776	
3.03619	1.01166	-0.984497	-0.39978	
3.1012	0.944519	-0.973816	-0.340271	
3.06976	0.7901	-1.08551	-0.43396	
2.99683	0.661011	-1.23566	-0.529175	
2.96448	0.622253	-1.30646	-0.554504	
2.98187	0.543823	-1.26831	-0.597229	
3.00079	0.432434	-1.16333	-0.718384	
2.98828	0.304565	-1.02936	-0.886536	
2.92328	0.294189	-0.892334	-0.974426	
2.81525	0.380554	-0.840454	-1.0025	
2.68188	0.484009	-0.909119	-1.0141	
2.56287	0.55481	-1.10565	-0.905151	
2.47406	0.559692	-1.33575	-0.726929	
2.39532	0.557556	-1.52863	-0.536194	
2.28912	0.603333	-1.64215	-0.39856	
2.18811	0.815125	-1.69098	-0.294495	
2.14142	1.10596	-1.68854	-0.163269	
2.15179	1.29547	-1.64337	0.0216675	
2.14661	1.24847	-1.57471	0.132141	
2.05322	1.04309	-1.54144	0.10376	
1.90125	0.850525	-1.586	-0.101013	
1.78741	0.804443	-1.64337	-0.34729	
1.7807	0.875244	-1.64337	-0.484924	
1.8512	0.959167	-1.53778	-0.502014	
1.97784	0.969543	-1.34094	-0.420837	
2.12006	0.929565	-1.14685	-0.380554	
2.22443	0.892944	-1.03821	-0.431213	
2.21405	0.868225	-1.0614	-0.583191	
2.06207	0.814819	-1.16791	-0.756836	
1.86951	0.745544	-1.28876	-0.823975	
1.71173	0.730286	-1.40076	-0.722656	
1.62811	0.812683	-1.53259	-0.539856	
1.55609	0.973206	-1.69861	-0.404358	
1.46545	1.08063	-1.87073	-0.362244	
1.39557	1.10626	-2.00775	-0.341187	
1.38702	1.04919	-2.08252	-0.263367	
1.43799	1.00861	-2.11212	-0.179749	
1.50177	1.02081	-2.10907	-0.112	
1.52405	1.06537	-2.1283	-0.017395	
1.50421	1.05042	-2.18231	0.0854492	
1.46301	1.03729	-2.22534	0.135803	
1.409	1.06384	-2.16888	0.119629	
1.33179	1.07788	-2.00317	0.10437	
1.21124	1.06567	-1.80328	0.0811768	
1.05347	1.00952	-1.65649	0.022583	
0.916443	0.971985	-1.57104	0.0839233	
0.852356	0.915527	-1.52618	0.245361	
0.817566	0.879211	-1.51428	0.481262	
0.756226	0.892639	-1.56067	0.56366	
0.622559	1.11877	-1.64246	0.505066	
0.483093	1.41998	-1.71539	0.437927	
0.448303	1.59241	-1.71967	0.508118	
0.532532	1.61591	-1.66046	0.626831	
0.674133	1.56464	-1.5799	0.671997	
0.737	1.61011	-1.52344	0.634766	
0.664673	1.69342	-1.52466	0.588684	
0.53833	1.79077	-1.58447	0.640869	
0.472107	1.84418	-1.65375	0.769958	
0.532837	1.85608	-1.69769	0.939026	
0.652466	1.76849	-1.7041	0.955505	
0.743103	1.64856	-1.68243	0.890503	
0.749207	1.62689	-1.64948	0.823364	
0.696106	1.68793	-1.59515	0.745544	
0.673828	1.72668	-1.52771	0.686646	
0.724792	1.68243	-1.46912	0.673523	
0.836182	1.6098	-1.44379	0.740967	
0.924072	1.59424	-1.47797	0.927124	
0.915527	1.64307	-1.51581	1.09894	
0.829163	1.73462	-1.48499	1.14105	
0.739746	1.82404	-1.38672	1.02264	
0.717468	1.84845	-1.32233	0.795288	
0.760803	1.81305	-1.35864	0.57251	
0.848083	1.82953	-1.43799	0.578003	
0.942688	1.85974	-1.49231	0.700073	
1.06476	1.90369	-1.51062	0.814819	
1.18683	1.82678	-1.53412	0.783691	
1.26801	1.68427	-1.57227	0.56427	
1.30066	1.56616	-1.62262	0.303345	
1.31714	1.50116	-1.6745	0.0894165	
1.34888	1.43585	-1.73523	0.00183105	
1.39191	1.4032	-1.79718	-0.0521851	
1.44104	1.38275	-1.8512	-0.0985718	
1.51611	1.3623	-1.93237	-0.116272	
1.60706	1.27686	-2.04041	-0.150757	
1.68213	1.15173	-2.11365	-0.114441	
1.63239	1.12854	-2.12402	-0.0402832	
1.47278	1.23871	-2.06757	0.0167847	
1.32141	1.41541	-1.97083	0.0280762	
1.29242	1.55853	-1.82312	0.0405884	
1.4151	1.64825	-1.60889	0.0854492	
1.5744	1.7749	-1.36322	0.1297	
1.67847	1.84906	-1.18378	0.111389	
1.74133	1.83929	-1.11328	-0.0646973	
1.82678	1.68457	-1.12305	-0.302734	
1.98517	1.47614	-1.11298	-0.327759	
2.18353	1.31317	-1.04004	-0.168762	
2.34344	1.25641	-0.944519	0.135193	
2.39563	1.32996	-0.862732	0.431824	
2.33398	1.50238	-0.838623	0.644836	
2.23846	1.65131	-0.874329	0.67627	
2.19299	1.72211	-0.950012	0.522766	
2.23358	1.71295	-0.987854	0.265503	
2.35229	1.66351	-0.965576	0.0808716	
2.47162	1.64581	-0.916443	0.0366211	
2.54303	1.62109	-0.890198	0.0744629	
2.54639	1.56464	-0.895691	0.0793457	
2.50488	1.51489	-0.899353	-0.0332642	
2.48413	1.49414	-0.869141	-0.254517	
2.52594	1.54297	-0.801086	-0.384521	
2.60864	1.5686	-0.717468	-0.280762	
2.67517	1.58295	-0.666199	-0.00701904	
2.70111	1.50757	-0.675049	0.256653	
2.7475	1.38367	-0.730896	0.299988	
2.85919	1.18713	-0.775452	0.147095	
3.0188	1.02936	-0.748596	-0.0408936	
3.17993	1.01166	-0.671082	-0.14679	
3.31055	1.16791	-0.590515	-0.205994	
3.38074	1.34155	-0.56366	-0.263062	
3.35358	1.35895	-0.577087	-0.32074	
3.2309	1.2558	-0.556335	-0.279541	
3.12012	1.20178	-0.513916	-0.109558	
3.11615	1.32935	-0.475464	0.0662231	
3.24738	1.57898	-0.499268	0.199585	
3.41614	1.73096	-0.57312	0.151062	
3.49976	1.74133	-0.638123	0.150146	
3.45093	1.67633	-0.666199	0.249939	
3.32336	1.64154	-0.628357	0.415649	
3.17139	1.66321	-0.531616	0.509949	
3.05878	1.6629	-0.429077	0.409851	
3.01788	1.57135	-0.372314	0.193176	
3.07526	1.42975	-0.367126	-0.0106812	
3.22418	1.35406	-0.349731	-0.09552	
3.34015	1.37756	-0.28717	-0.122681	
3.33191	1.33667	-0.227661	-0.279846	
3.20923	1.2149	-0.214539	-0.421143	
3.08441	1.08398	-0.241089	-0.485535	
2.98676	1.10779	-0.278931	-0.355835	
2.84637	1.2677	-0.323486	-0.178223	
2.61536	1.45111	-0.361938	-0.0338745	
2.35413	1.56342	-0.417786	0.0787354	
2.17407	1.56219	-0.470276	0.160828	
2.09229	1.4975	-0.51239	0.221252	
2.08252	1.38306	-0.502014	0.223694	
2.07062	1.28723	-0.44342	0.171204	
2.00439	1.23749	-0.37262	0.150757	
1.90063	1.22589	-0.321045	0.0747681	
1.77032	1.23596	-0.328674	0.0344849	
1.68274	1.28784	-0.383606	0.0930786	
1.7038	1.3147	-0.460815	0.393372	
1.8457	1.34308	-0.519104	0.740662	
2.09717	1.2912	-0.507202	0.946655	
2.341	1.20392	-0.411377	0.952148	
2.44965	1.1972	-0.273438	0.901489	
2.33246	1.21094	-0.173035	0.863342	
2.06879	1.24115	-0.155334	0.856323	
1.82404	1.16425	-0.222778	0.845337	
1.73157	1.00739	-0.351868	0.924072	
1.78986	0.867615	-0.535583	1.17004	
1.89484	0.826111	-0.761414	1.47644	
1.90918	0.892944	-0.942383	1.7749	
1.81549	1.02509	-0.995178	2.07611	
1.71906	1.14777	-0.917358	2.39929	
1.72089	1.2149	-0.762024	2.54913	
1.84509	1.20483	-0.59967	2.44507	
1.97052	1.15814	-0.452881	2.20306	
2.03857	1.12061	-0.354309	2.12067	
2.09259	1.10382	-0.327454	2.20001	
2.21924	1.0672	-0.362549	2.27631	
2.40723	0.982361	-0.39856	2.3587	
2.58209	0.879822	-0.39856	2.4295	
2.677	0.802002	-0.352783	2.547	
2.65259	0.78186	-0.273743	2.54364	
2.53296	0.85083	-0.213623	2.49664	
2.37671	0.983887	-0.218811	2.47894	
2.22839	1.15387	-0.279541	2.60468	
2.11853	1.26678	-0.370178	2.76093	
2.01935	1.28387	-0.451965	2.90405	
1.91772	1.31195	-0.518494	2.92511	
1.85944	1.3858	-0.570068	2.85126	
1.85516	1.47797	-0.574341	2.72675	
1.90186	1.66443	-0.527649	2.57111	
2.01172	1.81396	-0.415955	2.61353	
2.16553	1.88385	-0.294495	2.76642	
2.30469	1.73981	-0.189514	2.92847	
2.33368	1.44562	-0.105591	2.96844	
2.26624	1.16211	-0.0323486	2.8418	
2.20612	0.957642	0.0689697	2.63031	
2.22839	0.79895	0.143738	2.45605	
2.3172	0.697937	0.151672	2.32666	
2.41455	0.763245	0.0506592	2.23114	
2.45209	1.01196	-0.18219	2.19757	
2.35535	1.35193	-0.479431	2.2168	
2.11639	1.63116	-0.734558	2.25677	
1.8045	1.7691	-0.874634	2.27661	
1.58142	1.87744	-0.908203	2.2345	
1.49078	1.97205	-0.938416	2.2876	
1.49323	2.0697	-1.03485	2.35229	
1.50452	2.05109	-1.15051	2.435	
1.48682	1.95648	-1.18683	2.51068	
1.47064	1.86707	-1.09161	2.45667	
1.52771	1.83319	-0.894775	2.39258	
1.67969	1.84204	-0.693054	2.32941	
1.8808	1.8277	-0.571289	2.2876	
2.06329	1.74164	-0.513611	2.26074	
2.18262	1.5744	-0.472107	2.17834	
2.2345	1.39862	-0.377197	2.00897	
2.23511	1.32019	-0.238647	1.71234	
2.20428	1.37054	-0.123596	1.5097	
2.13013	1.47949	-0.0918579	1.43555	
1.95801	1.56281	-0.151978	1.53076	
1.70807	1.57898	-0.279236	1.63269	
1.46912	1.58234	-0.436401	1.65405	
1.35162	1.67023	-0.606079	1.64978	
1.33606	1.70197	-0.792542	1.59363	
1.3266	1.64307	-0.941467	1.54816	
1.31348	1.47339	-0.993652	1.53229	
1.32813	1.34064	-0.939331	1.55365	
1.41296	1.38916	-0.831604	1.62994	
1.56311	1.55945	-0.73822	1.66748	
1.68335	1.69098	-0.687256	1.63208	
1.73431	1.72211	-0.68634	1.53107	
1.69647	1.63666	-0.707092	1.30249	
1.62964	1.51031	-0.714722	1.09161	
1.62598	1.33636	-0.653381	0.948486	
1.72058	1.14044	-0.517578	0.906067	
1.92261	0.930786	-0.345764	0.943604	
2.1759	0.791016	-0.259705	0.959473	
2.36023	0.773926	-0.344543	0.965576	
2.36023	0.836182	-0.567017	0.998535	
2.17529	0.916443	-0.81604	1.02173	
1.91956	1.0379	-0.96405	1.07422	
1.73615	1.15112	-0.975952	1.16211	
1.62292	1.25488	-0.921631	1.26526	
1.52588	1.27563	-0.894165	1.29944	
1.39404	1.2384	-0.946655	1.22864	
1.29395	1.24908	-1.05743	1.12579	
1.29089	1.35254	-1.12701	1.09497	
1.3504	1.48071	-1.10748	1.10809	
1.42578	1.60339	-0.980225	1.21399	
1.47064	1.68701	-0.830383	1.2677	
1.53961	1.68976	-0.677795	1.26526	
1.63849	1.5918	-0.54657	1.16699	
1.79688	1.41846	-0.446472	0.958252	
1.98486	1.22253	-0.402527	0.69458	
2.18567	1.04065	-0.390625	0.499878	
2.38098	0.822754	-0.386658	0.399475	
2.53967	0.558777	-0.389404	0.417175	
2.61658	0.335693	-0.450439	0.529175	
2.55524	0.357971	-0.604858	0.725098	
2.3645	0.53833	-0.810547	0.901489	
2.11273	0.79071	-0.983582	0.987854	
1.91956	0.948486	-1.06293	1.06293	
1.84784	1.01715	-1.07483	1.14899	
1.89331	1.09924	-1.03943	1.25	
2.00836	1.19476	-0.939636	1.24359	
2.10114	1.2973	-0.776367	1.11908	
2.13501	1.39923	-0.613708	0.985107	
2.13745	1.55975	-0.541382	0.962219	
2.15302	1.71753	-0.570984	1.12671	
2.21436	1.77826	-0.618896	1.2973	
2.34497	1.70746	-0.601501	1.30981	
2.53418	1.56616	-0.512085	1.12	
2.73865	1.49445	-0.409546	0.801392	
2.88879	1.52344	-0.36377	0.47699	
2.95441	1.60065	-0.395508	0.275879	
2.94617	1.67877	-0.472107	0.205688	
2.9068	1.71295	-0.570374	0.190735	
2.90802	1.70166	-0.658569	0.140381	
3.00781	1.64642	-0.751648	0.0717163	
3.18359	1.55426	-0.853271	0.108337	
3.33405	1.49078	-0.948486	0.229492	
3.35327	1.51611	-0.986328	0.318298	
3.25897	1.63666	-0.929565	0.310974	
3.13782	1.78284	-0.820618	0.19104	
3.05847	1.8927	-0.766602	0.0698853	
3.05176	1.93207	-0.858459	-0.100403	
3.11157	1.94611	-1.05804	-0.207825	
3.22479	1.96472	-1.24237	-0.0985718	
3.37128	1.99829	-1.30219	0.152283	
3.51685	2.00531	-1.22681	0.367737	
3.66119	1.96503	-1.07269	0.386963	
3.7973	1.89392	-0.910645	0.281067	
3.91449	1.8277	-0.7724	0.141907	
3.94897	1.81732	-0.661926	0.0177002	
3.88794	1.90643	-0.563354	0.039978	
3.77594	1.94885	-0.495911	0.152283	
3.70026	1.90063	-0.490417	0.322571	
3.72711	1.74774	-0.527649	0.415344	
3.84979	1.61194	-0.500183	0.362549	
3.95203	1.55609	-0.346985	0.160828	
3.96576	1.54175	-0.125427	-0.109558	
3.90808	1.53442	0.0402832	-0.343933	
3.84674	1.55487	0.0164795	-0.421753	
3.82202	1.58051	-0.178223	-0.309143	
3.79211	1.5564	-0.446777	-0.168457	
3.74878	1.43585	-0.661621	-0.0881958	
3.72498	1.2088	-0.748291	-0.192871	
3.75488	1.03668	-0.705872	-0.264587	
3.82324	1.01379	-0.597229	-0.19989	
3.94409	1.18164	-0.48645	0.0119019	
4.09851	1.39221	-0.390015	0.124512	
4.25751	1.48285	-0.295715	0.045166	
4.39636	1.39221	-0.217285	-0.130005	
4.47418	1.22162	-0.185242	-0.194702	
4.49829	1.08459	-0.188904	-0.0860596	
4.47144	1.0614	-0.178833	0.0814819	
4.39575	1.20209	-0.120544	0.187683	
4.31274	1.3623	0.00854492	0.204163	
4.25842	1.44348	0.207825	0.197144	
4.27002	1.35773	0.446472	0.124512	
4.35455	1.20209	0.632019	-0.00549316	
4.45374	1.0849	0.667725	-0.0857544	
4.49524	1.0437	0.556641	-0.10376	
4.49371	1.04706	0.384216	0.0738525	
4.50745	1.08154	0.233154	0.299377	
4.64172	1.15784	0.137024	0.551147	
4.84711	1.22498	0.0900269	0.722046	
4.99146	1.27594	0.107727	0.769958	
5.03448	1.31256	0.185242	0.689697	
5.02625	1.33057	0.272827	0.578003	
5.07233	1.31409	0.300903	0.536194	
5.17853	1.20117	0.259705	0.586548	
5.26428	1.09528	0.217896	0.665283	
5.29633	0.995483	0.276184	0.587769	
5.29144	0.909729	0.538635	0.484924	
5.25085	0.864563	0.903625	0.449524	
5.22736	0.805359	1.25885	0.495605	
5.20874	0.771484	1.4328	0.623779	
5.22217	0.712891	1.43097	0.827332	
5.25513	0.61615	1.31958	1.05255	
5.23926	0.562134	1.11237	1.30188	
5.17822	0.541687	0.871277	1.45813	
5.14587	0.508118	0.677795	1.48773	
5.22064	0.439758	0.620117	1.38336	
5.41931	0.340271	0.697021	1.21399	
5.63873	0.274658	0.833435	1.08887	
5.75043	0.261841	0.940247	1.09436	
5.74951	0.286865	0.965881	1.22681	
5.68939	0.32074	0.928955	1.56158	
5.62012	0.310059	0.898438	1.87775	
5.54993	0.241089	0.963135	2.09686	
5.5072	0.155029	1.18103	2.02179	
5.52551	0.0747681	1.49597	1.65741	
5.56976	0.0115967	1.75873	1.19537	
5.58075	-0.0247192	1.84357	0.884094	
5.53375	0.0546265	1.73706	0.887451	
5.51575	0.190735	1.55212	1.04706	
5.61798	0.195313	1.43066	1.13861	
5.75897	0.0650024	1.39069	1.06628	
5.83038	-0.102844	1.36871	0.847473	
5.8078	-0.0369263	1.32385	0.710144	
5.77545	0.186768	1.27441	0.796814	
5.83344	0.368347	1.2561	1.0556	
5.95459	0.410156	1.26373	1.34125	
6.073	0.403137	1.2619	1.48621	
6.1441	0.392151	1.25092	1.46545	
6.21399	0.351563	1.24817	1.42609	
6.32019	0.250244	1.3205	1.44409	
6.49078	0.184631	1.5387	1.49414	
6.70929	0.211182	1.91803	1.43768	
6.91681	0.300903	2.38007	1.27411	
7.07794	0.378113	2.79022	1.09314	
7.25433	0.364685	3.06244	1.0376	
7.50031	0.262146	3.17017	1.05591	
7.77283	0.11261	3.11829	1.14014	
7.98065	0.015564	2.96051	1.27319	
8.00964	0.0680542	2.74994	1.38062	
7.89368	0.280457	2.56378	1.50909	
7.76154	0.45929	2.43866	1.55518	
7.69867	0.59082	2.3941	1.63422	
7.70294	0.630493	2.47253	1.74194	
7.64954	0.725098	2.5882	1.84143	
7.4649	0.866699	2.61719	1.90094	
7.20123	1.02936	2.45636	1.85974	
6.98029	1.14838	2.21649	1.76666	
6.83899	1.18866	2.07306	1.66016	
6.76239	1.13281	2.09564	1.48315	
6.67572	1.0434	2.16339	1.3089	
6.58569	0.958862	2.21344	1.1438	
6.52466	0.891113	2.2226	0.99884	
6.53015	0.812378	2.23633	0.873413	
6.60278	0.735779	2.23724	0.803528	
6.68732	0.666199	2.1463	0.887756	
6.72668	0.654907	1.95343	1.00647	
6.70746	0.666199	1.71692	1.10077	
6.62567	0.663452	1.53961	1.1496	
6.49902	0.610046	1.48346	1.1734	
6.40167	0.501709	1.5274	1.31775	
6.40717	0.460205	1.58356	1.57684	
6.47797	0.541382	1.59027	1.84662	
6.51886	0.722961	1.51917	2.02972	
6.45538	0.929871	1.44165	2.07825	
6.3446	1.08398	1.46393	2.07672	
6.29089	1.19232	1.60767	2.11365	
6.29608	1.28571	1.80176	2.22534	
6.29211	1.35742	1.89026	2.43195	
6.22772	1.39893	1.82495	2.62146	
6.14655	1.37634	1.66321	2.74292	
6.14166	1.27838	1.51367	2.67426	
6.24634	1.19904	1.44287	2.41272	
6.39648	1.09222	1.47186	2.01843	
6.51703	0.977478	1.58356	1.69464	
6.61285	0.784302	1.69922	1.54816	
6.66351	0.50293	1.71661	1.56281	
6.6748	0.258179	1.59821	1.53809	
6.67755	0.13092	1.40991	1.39465	
6.67023	0.125427	1.26221	1.32568	
6.65955	0.188293	1.23169	1.45294	
6.60919	0.279236	1.31989	1.81763	
6.53809	0.429688	1.50482	2.0575	
6.51062	0.643616	1.72638	2.04559	
6.50482	0.86731	1.8924	1.88477	
6.41907	1.09802	1.89758	1.72455	
6.26068	1.26221	1.75476	1.69159	
6.12305	1.33209	1.57684	1.62506	
6.08307	1.36169	1.48499	1.62933	
6.1261	1.29456	1.46118	1.66565	
6.19171	1.19751	1.41876	1.7569	
6.28387	1.04492	1.34674	1.8573	
6.45996	0.926514	1.3147	1.77277	
6.68427	0.857544	1.38824	1.492	
6.89087	0.821838	1.55243	1.14563	
7.02271	0.74707	1.71844	0.794067	
7.06818	0.604858	1.81213	0.610046	
7.03674	0.455627	1.81885	0.666809	
6.9809	0.371399	1.75171	0.909729	
6.9339	0.405273	1.72241	1.19415	
6.91772	0.523071	1.80969	1.32935	
6.89117	0.647888	1.99493	1.25092	
6.77277	0.750732	2.14142	1.0614	
6.57776	0.795898	2.10815	0.912476	
6.40839	0.801086	1.90979	0.886841	
6.32935	0.761414	1.66443	0.965271	
6.3208	0.743408	1.48224	1.13922	
6.30615	0.869141	1.39191	1.38916	
6.27136	1.00311	1.38702	1.51001	
6.29333	1.01837	1.41327	1.49811	
6.42792	0.847168	1.47278	1.28967	
6.64246	0.602112	1.58325	1.10199	
6.88171	0.472717	1.76453	1.01501	
7.08008	0.475159	1.96899	0.991821	
7.21924	0.477295	2.12921	1.05042	
7.29095	0.409241	2.16461	1.15997	
7.29462	0.281677	2.1051	1.24268	
7.25464	0.206909	2.03796	1.22375	
7.19757	0.238342	2.05505	1.04767	
7.12769	0.362854	2.13898	0.769043	
6.99982	0.568237	2.17285	0.606079	
6.82587	0.873718	2.06177	0.665588	
6.6626	1.08795	1.83136	0.808411	
6.58203	1.17065	1.62811	0.923157	
6.59271	1.13342	1.53015	0.97168	
6.62872	1.14075	1.51794	1.04218	
6.66504	1.21399	1.5274	1.15265	
6.69769	1.2616	1.56311	1.2558	
6.7395	1.26648	1.63177	1.32874	
6.83899	1.26831	1.72577	1.40137	
7.04224	1.2738	1.8515	1.45355	
7.38281	1.24054	2.00836	1.45569	
7.80151	1.0907	2.14996	1.39221	
8.1311	0.862427	2.20734	1.33759	
8.19122	0.627441	2.19086	1.30188	
7.96753	0.520325	2.21344	1.19873	
7.61261	0.628357	2.32025	1.0434	
7.32849	0.765991	2.43073	0.90271	
7.19727	0.845947	2.40112	0.899658	
7.13989	0.830383	2.21283	1.16791	
7.08221	0.874329	1.95923	1.60034	
6.99554	1.07544	1.76208	2.03461	
6.92261	1.2973	1.65985	2.13043	
6.89087	1.47217	1.6333	1.8808	
6.90399	1.60706	1.65131	1.57684	
6.96533	1.74805	1.70685	1.4389	
7.0462	1.89148	1.79871	1.48895	
7.14722	1.98456	1.91589	1.49811	
7.28058	2.00989	2.01782	1.49475	
7.44873	1.9696	2.03339	1.50482	
7.63	1.86737	2.01538	1.52496	
7.75604	1.79077	2.06573	1.47217	
7.7832	1.7691	2.26471	1.19446	
7.72919	1.73004	2.53906	0.860901	
7.64862	1.64917	2.7243	0.637512	
7.59583	1.45325	2.70111	0.489807	
7.54883	1.27197	2.50366	0.446472	
7.47253	1.14838	2.24945	0.52887	
7.3819	1.17096	2.04315	0.826721	
7.31598	1.31805	1.89606	1.24542	
7.32117	1.51917	1.76788	1.61316	
7.35931	1.68945	1.62689	1.85181	
7.38892	1.80695	1.48468	2.03217	
7.36755	1.96442	1.34857	2.19482	
7.29034	2.14508	1.24634	2.33032	
7.19971	2.27997	1.17645	2.3941	
7.13135	2.28516	1.14929	2.32361	
7.13531	2.14874	1.17798	2.16644	
7.23419	1.99554	1.28448	2.10327	
7.4234	1.89545	1.45752	2.21069	
7.66724	1.87347	1.65466	2.44965	
7.89581	1.96289	1.83197	2.50183	
8.02704	2.04651	1.94916	2.18353	
8.03406	2.10083	1.97357	1.70776	
7.94189	2.02148	1.85577	1.41754	
7.79999	1.83533	1.6153	1.40228	
7.66998	1.63147	1.37634	1.62994	
7.57965	1.5155	1.29456	1.82251	
7.5412	1.42487	1.37543	1.91956	
7.5589	1.39587	1.49414	2.02789	
7.60742	1.4505	1.50543	2.19635	
7.68311	1.63177	1.41602	2.43958	
7.76428	1.85608	1.28815	2.60925	
7.83234	1.95587	1.2146	2.66022	
7.88391	1.88751	1.23474	2.66937	
7.94464	1.77582	1.35468	2.6828	
8.01819	1.67969	1.50208	2.64313	
8.09601	1.64612	1.58691	2.63336	
8.14117	1.66321	1.58325	2.74414	
8.11188	1.68549	1.54541	2.98004	
8.04047	1.71417	1.56586	3.18451	
7.91534	1.71814	1.63818	3.16528	
7.77863	1.76636	1.70074	2.91199	
7.70752	1.8396	1.68488	2.70844	
7.72064	1.88141	1.58508	2.71484	
7.83417	1.75781	1.47034	2.84302	
7.94769	1.48132	1.41571	3.03528	
7.98004	1.15967	1.47003	3.17108	
7.94037	1.00769	1.59912	3.27606	
7.86896	1.03027	1.74408	3.23486	
7.82867	1.15631	1.87317	3.0484	
7.83813	1.27136	1.92993	2.74811	
7.91748	1.27258	1.86737	2.61108	
8.01697	1.17279	1.72089	2.67944	
8.10272	1.0614	1.56708	2.89886	
8.1308	1.07178	1.47278	3.06976	
8.08929	1.2262	1.4267	3.06702	
7.97913	1.46912	1.39832	3.05145	
7.81616	1.64124	1.37146	3.14026	
7.68799	1.67603	1.38733	3.25928	
7.659	1.68457	1.48499	3.25165	
7.75574	1.69189	1.64795	3.03619	
7.88605	1.72913	1.81305	2.67517	
7.92297	1.76514	1.90643	2.37366	
7.86163	1.77155	1.94519	2.27234	
7.72827	1.74469	1.98273	2.36145	
7.6004	1.69312	2.06787	2.47375	
7.51068	1.63544	2.17804	2.57446	
7.46033	1.56982	2.2641	2.60498	
7.45331	1.50085	2.22351	2.63275	
7.47833	1.37482	2.06726	2.6297	
7.53845	1.27655	1.87714	2.66357	
7.58484	1.33423	1.74744	2.64832	
7.5824	1.50543	1.72638	2.68005	
7.53265	1.75079	1.77582	2.61383	
7.50458	1.86035	1.82404	2.56378	
7.53082	1.78345	1.80756	2.55432	
7.55524	1.58417	1.65741	2.60864	
7.50305	1.43616	1.44196	2.73865	
7.39746	1.46851	1.29181	2.7597	
7.27692	1.63666	1.29608	2.74872	
7.18719	1.77307	1.38184	2.71851	
7.13928	1.76941	1.40594	2.65228	
7.13715	1.67969	1.31134	2.60376	
7.1759	1.60004	1.22955	2.56073	
7.25739	1.5564	1.29028	2.46429	
7.37213	1.57074	1.5097	2.30621	
7.50946	1.56921	1.73157	2.20184	
7.61169	1.55182	1.77032	2.22961	
7.57965	1.51031	1.60187	2.37152	
7.40814	1.50238	1.36353	2.46155	
7.19452	1.50787	1.19629	2.43225	
7.06238	1.47461	1.13129	2.33795	
7.07031	1.37329	1.10901	2.27051	
7.15851	1.30463	1.11481	2.25037	
7.22229	1.30859	1.16425	2.14172	
7.22351	1.27472	1.25793	1.95435	
7.21039	1.12518	1.40717	1.97632	
7.22595	1.0553	1.56311	2.29309	
7.24243	1.14044	1.66626	2.74323	
7.24457	1.35773	1.67694	2.95746	
7.20612	1.47858	1.59302	2.83508	
7.211	1.40015	1.48987	2.59155	
7.28943	1.23444	1.42059	2.42676	
7.44568	1.07025	1.41357	2.31659	
7.612	0.909119	1.43311	2.17377	
7.70081	0.747986	1.41541	1.97876	
7.67578	0.623169	1.35559	1.84662	
7.5589	0.576477	1.28357	1.81641	
7.41394	0.653076	1.24359	1.88385	
7.29065	0.818787	1.2326	2.06635	
7.19849	1.00433	1.23962	2.29401	
7.10205	1.17126	1.27197	2.46185	
6.96899	1.31104	1.32294	2.50458	
6.86432	1.51031	1.40625	2.4649	
6.88568	1.64337	1.50574	2.43469	
7.06055	1.66199	1.59698	2.32178	
7.28027	1.50024	1.66412	2.16919	
7.4408	1.33942	1.70197	2.05109	
7.56439	1.34094	1.79535	2.13013	
7.72125	1.5097	1.97327	2.33276	
7.94922	1.70197	2.23236	2.47833	
8.16925	1.74377	2.47101	2.39471	
8.3429	1.62842	2.64435	2.11273	
8.46863	1.43219	2.76459	1.91162	
8.57483	1.28265	2.86407	1.89087	
8.63922	1.24023	2.95441	2.05627	
8.62732	1.27075	3.02094	2.18445	
8.5141	1.32813	3.05603	2.17407	
8.33435	1.43829	3.03284	2.17926	
8.16925	1.62323	2.98584	2.33185	
8.08807	1.81793	2.9483	2.55432	
8.07007	1.91071	2.93884	2.68494	
8.07678	1.81549	2.95898	2.64923	
8.07068	1.62994	2.995	2.59918	
8.0365	1.44287	2.99103	2.56531	
7.96051	1.30463	2.91443	2.48474	
7.85828	1.22925	2.80426	2.34924	
7.75513	1.18073	2.74689	2.18903	
7.71271	1.1615	2.84546	1.97571	
7.73132	1.04889	3.04688	1.73309	
7.73743	0.826416	3.15857	1.47552	
7.71149	0.65918	3.09937	1.43768	
7.63702	0.676575	2.90314	1.7865	
7.53723	0.895996	2.64771	2.43896	
7.44202	1.07788	2.42065	3.10394	
7.33948	1.1261	2.18994	3.45947	
7.18414	1.11633	1.97327	3.4375	
6.96564	1.20667	1.78558	3.18481	
6.69159	1.40045	1.63818	3.01178	
6.42853	1.60919	1.5744	2.98737	
6.20453	1.74347	1.60675	3.08167	
5.98816	1.73981	1.68823	3.12286	
5.7959	1.65009	1.75232	3.13873	
5.68573	1.58783	1.74408	3.22601	
5.73914	1.56036	1.67023	3.30139	
5.87341	1.51001	1.57349	3.13965	
5.93262	1.47003	1.49872	2.79449	
5.89111	1.45294	1.50146	2.48138	
5.82245	1.49078	1.57684	2.45422	
5.79742	1.51428	1.65955	2.6416	
5.77698	1.44958	1.64185	2.80762	
5.66254	1.37115	1.51154	2.92999	
5.42816	1.30798	1.3092	3.04047	
5.17212	1.25153	1.13647	3.1955	
5	1.28937	0.991211	3.26416	
4.9469	1.38519	0.830078	3.16467	
4.94781	1.50452	0.632324	3.0603	
4.87457	1.539	0.437927	3.06335	
4.70734	1.42426	0.314331	3.12805	
4.54773	1.29303	0.32074	3.16101	
4.51172	1.29211	0.421143	3.06854	
4.58466	1.43799	0.520935	2.98645	
4.68048	1.63208	0.551453	3.00232	
4.71985	1.67236	0.505981	3.28308	
4.69421	1.5332	0.4599	3.64868	
4.63348	1.30005	0.464478	3.84003	
4.61609	1.08337	0.50293	3.71796	
4.74518	0.949402	0.555725	3.46619	
4.95361	0.91156	0.582581	3.27728	
5.08453	0.974426	0.603333	3.22845	
4.99542	1.13586	0.612793	3.25684	
4.75311	1.29913	0.588989	3.38104	
4.53522	1.39343	0.526123	3.56018	
4.43726	1.35406	0.46875	3.703	
4.43665	1.19507	0.440979	3.65509	
4.45251	0.945435	0.415344	3.44299	
4.44336	0.721741	0.351563	3.27057	
4.40613	0.660706	0.282288	3.23151	
4.39728	0.749512	0.295715	3.38379	
4.40552	0.862732	0.411377	3.62488	
4.39423	0.886841	0.538025	3.84033	
4.31274	0.892029	0.585938	3.83698	
4.19281	0.969543	0.541992	3.66058	
4.11804	1.08917	0.46936	3.3786	
4.14307	1.20789	0.439453	3.0957	
4.24225	1.2088	0.465698	2.98401	
4.36584	1.12427	0.514526	3.09357	
4.4165	1.03699	0.492554	3.3374	
4.37958	1.0022	0.355835	3.52478	
4.26544	1.05316	0.148926	3.50342	
4.11743	1.10748	-0.0219727	3.33557	
3.98895	1.08887	-0.0970459	3.17566	
3.91327	1.03912	-0.0997925	3.12927	
3.87787	1.05682	-0.0579834	3.27118	
3.85651	1.17981	-0.027771	3.43597	
3.7973	1.33179	-0.0582886	3.53119	
3.71155	1.42303	-0.112915	3.48297	
3.65967	1.3623	-0.149536	3.31543	
3.63861	1.23108	-0.106506	3.14117	
3.61664	1.08887	-0.00457764	3.02216	
3.60535	0.978088	0.108032	3.0249	
3.63098	0.908203	0.20752	3.09875	
3.71948	0.836182	0.247498	3.11249	
3.83911	0.733948	0.252991	3.02521	
3.97369	0.624695	0.240173	2.86163	
4.09241	0.519409	0.245056	2.68158	
4.15619	0.469055	0.259705	2.67517	
4.13483	0.437317	0.264282	2.73285	
4.07593	0.484619	0.262451	2.83997	
4.05396	0.584412	0.285034	2.93182	
4.08173	0.689087	0.317383	2.97882	
4.05121	0.662231	0.313416	2.99744	
3.9093	0.523987	0.269775	2.98157	
3.7207	0.400696	0.229797	2.99255	
3.60016	0.381775	0.239258	3.05145	
3.60535	0.441284	0.3125	3.02032	
3.69751	0.52002	0.412598	2.87659	
3.82874	0.555725	0.513	2.65381	
3.97308	0.532837	0.58075	2.39105	
4.08752	0.483704	0.59082	2.10968	
4.11285	0.445557	0.536499	1.92871	
4.05121	0.506897	0.4422	1.86859	
3.97949	0.549011	0.35553	2.01874	
3.98651	0.577087	0.330505	2.21252	
4.08844	0.555115	0.342102	2.31598	
4.23981	0.516357	0.35553	2.29187	
4.35577	0.492859	0.368347	2.19177	
4.35974	0.453186	0.411072	2.06696	
4.25659	0.435181	0.466614	1.93787	
4.10736	0.47699	0.462646	1.84235	
3.99078	0.597839	0.368958	1.83502	
3.9447	0.725708	0.275574	1.84967	
3.94745	0.819397	0.279541	1.83594	
4.00391	0.950623	0.395508	1.7395	
4.06616	1.08917	0.539551	1.67969	
4.08691	1.27441	0.600586	1.68579	
4.0744	1.34888	0.544434	1.79504	
4.07013	1.30096	0.398254	1.94946	
4.15253	1.20178	0.24292	2.07092	
4.27551	1.12579	0.194397	2.13531	
4.35852	1.10992	0.28595	2.16034	
4.34753	1.12	0.455933	2.10205	
4.26422	1.07025	0.584106	2.00531	
4.17938	1.01807	0.629883	2.03674	
4.1037	0.940552	0.5896	2.13928	
4.03107	0.874329	0.513611	2.33521	
3.92975	0.835571	0.427551	2.4826	
3.8382	0.843506	0.394592	2.63306	
3.77136	0.928955	0.450745	2.81067	
3.71277	1.06842	0.570068	3.00201	
3.61145	1.33148	0.669861	3.07098	
3.45612	1.56738	0.713196	2.98309	
3.34412	1.6748	0.768738	2.78046	
3.33893	1.55029	0.926208	2.54425	
3.4317	1.33728	1.17645	2.35596	
3.54248	1.20117	1.41327	2.26471	
3.60443	1.20209	1.50085	2.38312	
3.66028	1.26251	1.42609	2.58331	
3.77167	1.24756	1.28113	2.68372	
3.95721	1.1264	1.17371	2.61963	
4.1394	0.935974	1.13525	2.52167	
4.22028	0.800171	1.11206	2.57538	
4.16534	0.793152	1.08063	2.79633	
4.02618	0.962524	1.07574	3.05878	
3.89435	1.17615	1.11115	3.26111	
3.80585	1.31683	1.17706	3.38013	
3.74542	1.42303	1.23962	3.42407	
3.71674	1.45355	1.27777	3.38379	
3.71521	1.44745	1.26556	3.32489	
3.73932	1.3736	1.2027	3.37891	
3.7973	1.27594	1.12854	3.58185	
3.84491	1.22681	1.07849	3.79456	
3.86871	1.24084	1.08215	3.84552	
3.85773	1.29578	1.09985	3.72772	
3.80707	1.38458	1.09497	3.51807	
3.74329	1.46759	1.03027	3.43506	
3.7085	1.52069	0.9021	3.4613	
3.70575	1.5213	0.736084	3.57788	
3.74481	1.54022	0.605774	3.73383	
3.80493	1.58295	0.540771	3.82904	
3.8858	1.68823	0.526733	3.89771	
3.95538	1.79291	0.512085	3.87665	
3.97339	1.9101	0.487671	3.89252	
3.90839	2.01294	0.476074	4.0509	
3.77106	2.13776	0.516357	4.20959	
3.62549	2.20856	0.597229	4.2453	
3.52753	2.17804	0.738525	4.1922	
3.49121	2.0343	0.913391	4.15802	
3.52173	1.83563	1.04706	4.22028	
3.59406	1.71082	1.06262	4.33929	
3.69415	1.63239	0.943909	4.39606	
3.81439	1.54724	0.785522	4.31885	
3.95111	1.45355	0.68634	4.14948	
4.06372	1.41144	0.642395	4.00879	
4.0863	1.42944	0.596008	3.88733	
3.97614	1.43341	0.527954	3.80493	
3.76373	1.46759	0.444946	3.89008	
3.53973	1.51764	0.387878	4.039	
3.38409	1.60034	0.337219	4.26483	
3.349	1.56952	0.305786	4.41772	
3.4021	1.45416	0.291443	4.47876	
3.4552	1.42578	0.290222	4.44519	
3.45306	1.47278	0.317383	4.33868	
3.4024	1.53259	0.371704	4.18182	
3.37067	1.48132	0.432129	4.04724	
3.34808	1.3739	0.472107	4.00604	
3.32001	1.31226	0.4776	4.04541	
3.31085	1.32721	0.475159	4.14642	
3.34167	1.37512	0.452881	4.23737	
3.40973	1.39557	0.409241	4.30206	
3.41064	1.38916	0.343933	4.40765	
3.33893	1.37756	0.286255	4.52271	
3.27606	1.34857	0.230408	4.59534	
3.30017	1.27655	0.15625	4.56573	
3.42438	1.16211	0.0772095	4.46564	
3.5556	1.13129	0.0128174	4.35303	
3.64655	1.2265	0.0115967	4.32709	
3.68561	1.39099	0.0439453	4.34204	
3.73413	1.54877	0.0582886	4.39606	
3.8269	1.57043	0.0738525	4.41345	
3.91724	1.48834	0.123291	4.41559	
3.94287	1.35101	0.231323	4.40399	
3.87726	1.30127	0.354614	4.39789	
3.77747	1.36017	0.437317	4.42871	
3.71033	1.47827	0.446167	4.44122	
3.69751	1.59485	0.407104	4.47021	
3.72223	1.70563	0.37262	4.54987	
3.76221	1.81244	0.358276	4.63135	
3.75824	1.88873	0.36377	4.59106	
3.72009	1.91437	0.36438	4.44427	
3.6795	1.91956	0.345764	4.27795	
3.69049	1.93726	0.305481	4.19403	
3.68896	1.90857	0.252075	4.16168	
3.56415	1.84296	0.162659	4.07806	
3.31177	1.75812	0.032959	3.90717	
3.03497	1.73462	-0.125427	3.71704	
2.8598	1.86096	-0.281677	3.59985	
2.83081	2.01019	-0.367432	3.55499	
2.87537	2.13684	-0.38147	3.53699	
2.9071	2.21191	-0.309448	3.50311	
2.83813	2.27661	-0.195618	3.44513	
2.66998	2.35138	-0.0946045	3.32916	
2.48352	2.37091	-0.0695801	3.24127	
2.37701	2.3587	-0.101929	3.32733	
2.36969	2.36206	-0.168152	3.55621	
2.37854	2.41516	-0.239258	3.86078	
2.37061	2.44385	-0.261841	4.08844	
2.37946	2.37732	-0.238647	4.14337	
2.48749	2.211	-0.146179	4.09393	
2.66174	2.01477	-0.0421143	3.98102	
2.8418	1.89972	0.0448608	3.92822	
2.95319	1.98792	0.0927734	3.93707	
2.99072	2.10724	0.101013	3.91449	
2.98035	2.18506	0.107422	3.84674	
2.9245	2.16003	0.147095	3.72742	
2.82593	2.10663	0.226746	3.61969	
2.73468	2.13654	0.33783	3.56354	
2.7179	2.15698	0.420532	3.56354	
2.77039	2.0816	0.420532	3.57574	
2.85828	2.08832	0.320435	3.71765	
2.883	2.14539	0.111694	3.92395	
2.836	2.23297	-0.13031	4.0979	
2.75085	2.17987	-0.341187	4.12659	
2.69501	1.98578	-0.473022	3.95355	
2.71576	1.77124	-0.549316	3.69873	
2.80182	1.63727	-0.592651	3.53546	
2.8717	1.59302	-0.595398	3.50372	
2.91718	1.66077	-0.541382	3.6084	
2.97058	1.71265	-0.428467	3.71552	
3.03314	1.74896	-0.302429	3.73413	
3.0658	1.7804	-0.201721	3.72711	
3.00964	1.77887	-0.156555	3.70667	
2.90802	1.79565	-0.157471	3.7088	
2.82318	1.80908	-0.189209	3.65692	
2.77679	1.87164	-0.230408	3.52234	
2.74963	1.92047	-0.220032	3.44147	
2.68066	1.86676	-0.119629	3.42468	
2.57782	1.70349	0.0604248	3.39874	
2.49451	1.5387	0.192261	3.28217	
2.46857	1.44836	0.187378	3.12073	
2.54089	1.39191	0.0811768	2.96112	
2.65533	1.39618	-0.0387573	2.8653	
2.73499	1.41785	-0.116272	2.88727	
2.76215	1.474	-0.175476	3.09113	
2.77893	1.54022	-0.243225	3.32001	
2.81799	1.56281	-0.294189	3.38684	
2.90558	1.52679	-0.313721	3.27423	
2.97638	1.44043	-0.298767	3.11493	
2.95898	1.37573	-0.287476	3.00293	
2.85553	1.28601	-0.298157	3.01147	
2.70233	1.24847	-0.312805	3.14667	
2.60376	1.20483	-0.311279	3.34808	
2.58179	1.18652	-0.293579	3.42346	
2.60406	1.23199	-0.249939	3.31757	
2.60681	1.29242	-0.197144	3.07251	
2.55768	1.35559	-0.138855	2.87048	
2.45605	1.36017	-0.0939941	2.85583	
2.32178	1.3266	-0.0958252	2.95776	
2.19055	1.26556	-0.128479	3.19153	
2.16492	1.21643	-0.152283	3.4433	
2.27631	1.18378	-0.163879	3.71216	
2.46429	1.20514	-0.176697	3.99689	
2.63245	1.32935	-0.220032	4.14124	
2.71606	1.41052	-0.262146	4.11896	
2.72125	1.40961	-0.281067	3.99323	
2.67029	1.32019	-0.28595	3.88794	
2.58881	1.27655	-0.301819	3.94928	
2.5235	1.36047	-0.338135	4.08356	
2.4939	1.45203	-0.355835	4.17664	
2.49115	1.51031	-0.318298	4.21417	
2.46521	1.5274	-0.255127	4.22577	
2.38129	1.55487	-0.163574	4.21661	
2.26257	1.60065	-0.0601196	4.18457	
2.15057	1.6156	0.027771	4.13727	
2.09198	1.59698	0.0418091	4.04907	
2.06451	1.58722	-0.0765991	4.01031	
2.04681	1.56891	-0.281677	4.06281	
2.01569	1.56616	-0.489502	4.21722	
1.94183	1.59576	-0.603333	4.42902	
1.84906	1.62231	-0.603943	4.58191	
1.74469	1.6217	-0.524292	4.66522	
1.68091	1.53717	-0.464783	4.62189	
1.64307	1.47186	-0.466919	4.53735	
1.61804	1.52069	-0.533752	4.43451	
1.6449	1.67236	-0.633545	4.3576	
1.73737	1.82953	-0.71991	4.31305	
1.84998	1.91193	-0.749512	4.28223	
1.86676	1.98334	-0.701904	4.21936	
1.80756	2.10541	-0.600281	4.13666	
1.7514	2.24457	-0.507202	4.09851	
1.77551	2.30682	-0.467529	4.1217	
1.85791	2.27936	-0.469666	4.11011	
1.91406	2.21069	-0.464478	4.06982	
1.94366	2.1405	-0.446167	4.04602	
1.96686	2.17194	-0.423889	4.07532	
1.97998	2.26044	-0.429688	4.17389	
1.98242	2.3761	-0.476685	4.31702	
1.98273	2.35992	-0.542603	4.41101	
2.01935	2.20062	-0.639954	4.46411	
2.07306	2.03613	-0.734863	4.47449	
2.10175	2.02393	-0.81604	4.50714	
2.0636	2.15424	-0.861511	4.4809	
2.00623	2.26532	-0.888977	4.34082	
1.96564	2.2876	-0.923767	4.15649	
1.9278	2.18903	-0.956116	3.99902	
1.88019	2.03735	-0.947266	3.96179	
1.81549	1.93573	-0.901794	4.01642	
1.72424	1.94763	-0.860901	4.07379	
1.64612	2.10327	-0.855103	4.07501	
1.59088	2.21405	-0.834961	3.87115	
1.59546	2.25586	-0.757751	3.57605	
1.64246	2.21008	-0.656433	3.43292	
1.65558	2.1701	-0.593567	3.50739	
1.6449	2.16187	-0.58075	3.70483	
1.65863	2.18048	-0.587463	3.84003	
1.73706	2.15881	-0.585022	3.90228	
1.84631	2.16095	-0.545959	3.97736	
1.89728	2.13013	-0.467529	4.03687	
1.87531	2.0697	-0.394592	3.93158	
1.80298	1.99982	-0.348511	3.7442	
1.69189	2.00226	-0.345764	3.62427	
1.54083	2.10327	-0.34668	3.63953	
1.38245	2.33795	-0.347595	3.69934	
1.3147	2.49634	-0.404358	3.69537	
1.34033	2.48444	-0.556641	3.53668	
1.40167	2.34161	-0.751648	3.30322	
1.41998	2.21802	-0.888672	3.18878	
1.37726	2.24792	-0.928955	3.15948	
1.3269	2.33734	-0.916443	3.15338	
1.27197	2.38312	-0.888062	3.12561	
1.24481	2.30225	-0.83313	3.0011	
1.24573	2.20367	-0.741882	2.89703	
1.26495	2.11975	-0.675354	2.76459	
1.27136	2.06146	-0.716858	2.6474	
1.26404	1.95282	-0.843811	2.51678	
1.27106	1.87805	-0.990295	2.46033	
1.31256	1.94336	-1.09924	2.52625	
1.34888	2.05688	-1.13403	2.62451	
1.30676	2.08282	-1.13464	2.62299	
1.19934	1.95862	-1.12396	2.6297	
1.09375	1.86432	-1.1322	2.71667	
1.03455	1.90491	-1.15814	2.87476	
0.991821	1.9928	-1.14655	2.96844	
0.935974	2.00409	-1.10107	2.89154	
0.908813	1.91528	-1.073	2.72736	
0.967712	1.82434	-1.06995	2.6889	
1.10504	1.80542	-1.01624	2.74139	
1.23566	1.85699	-0.857849	2.84729	
1.30859	1.95831	-0.678101	2.89764	
1.31744	2.0993	-0.567627	2.88147	
1.32599	2.14996	-0.559082	2.88208	
1.33484	2.04468	-0.604553	2.82562	
1.29608	1.83411	-0.65918	2.73712	
1.18835	1.69189	-0.723877	2.67883	
1.07269	1.698	-0.777588	2.66968	
1.02844	1.75537	-0.819702	2.73438	
1.04858	1.76636	-0.85083	2.79724	
1.01898	1.74744	-0.88623	2.85736	
0.883484	1.74957	-0.921326	2.91199	
0.655212	1.7926	-0.912781	2.9187	
0.438843	1.89148	-0.844421	2.86377	
0.333557	2.09808	-0.718079	2.75818	
0.368042	2.30713	-0.570068	2.64191	
0.505981	2.4353	-0.409851	2.51587	
0.671082	2.41516	-0.240784	2.40356	
0.820313	2.32971	-0.0717163	2.30133	
0.941772	2.29004	0.0628662	2.33612	
1.03729	2.323	0.105896	2.47742	
1.05652	2.30103	0.0378418	2.57446	
1.02234	2.21436	-0.108643	2.57843	
0.9729	2.02881	-0.24231	2.46735	
0.935974	1.88538	-0.315552	2.38861	
0.914612	1.81213	-0.344849	2.42279	
0.917358	1.7511	-0.362244	2.53723	
0.926208	1.68427	-0.363464	2.60681	
0.914307	1.51428	-0.37323	2.58362	
0.821838	1.30035	-0.421448	2.49878	
0.666199	1.0556	-0.523376	2.42981	
0.516968	0.818176	-0.673828	2.42188	
0.473633	0.794373	-0.803833	2.48535	
0.542297	0.98053	-0.866394	2.58728	
0.666199	1.28723	-0.834045	2.5946	
0.750732	1.50757	-0.699158	2.52808	
0.737	1.55548	-0.539246	2.36359	
0.647583	1.45355	-0.422668	2.19421	
0.541687	1.38489	-0.405273	2.11121	
0.455017	1.3269	-0.467224	2.13684	
0.38208	1.30432	-0.583191	2.22839	
0.354919	1.29456	-0.72052	2.22504	
0.384216	1.29669	-0.800476	2.14966	
0.491638	1.3681	-0.80658	2.15424	
0.641479	1.40442	-0.766907	2.25464	
0.769348	1.34949	-0.733643	2.41699	
0.797729	1.21216	-0.753174	2.51129	
0.689087	1.05438	-0.788574	2.4353	
0.500793	1.0083	-0.808105	2.3291	
0.329285	1.08795	-0.809631	2.25433	
0.212402	1.23627	-0.847473	2.2818	
0.111389	1.30432	-0.943298	2.2821	
-0.0183105	1.28326	-1.0556	2.29156	
-0.167847	1.18408	-1.07849	2.2644	
-0.293884	1.09467	-0.967712	2.29004	
-0.328064	1.00433	-0.733948	2.2226	
-0.240173	0.920105	-0.493774	2.13654	
-0.0860596	0.932312	-0.366211	2.03308	
0.039978	0.996399	-0.419006	1.99371	
0.0683594	1.07147	-0.629883	1.94885	
-0.00915527	1.06842	-0.898438	1.79688	
-0.109863	1.01501	-1.11755	1.60187	
-0.149536	0.959473	-1.24268	1.51245	
-0.0756836	0.915833	-1.25641	1.48468	
0.0769043	0.914917	-1.23291	1.48285	
0.199585	0.944824	-1.2384	1.44989	
0.235291	1.06384	-1.25153	1.4621	
0.23468	1.18469	-1.22345	1.48804	
0.257874	1.27045	-1.1554	1.39862	
0.305481	1.2384	-1.11786	1.38367	
0.329895	1.05927	-1.15112	1.5329	
0.292053	0.787354	-1.1908	1.81671	
0.224609	0.502319	-1.11328	1.96167	
0.20813	0.375366	-0.930786	1.88568	
0.308838	0.409241	-0.715637	1.72913	
0.502014	0.56488	-0.563354	1.71417	
0.699463	0.693665	-0.499878	1.86066	
0.834351	0.703125	-0.53772	2.01355	
0.870667	0.625916	-0.65918	2.0343	
0.796509	0.552979	-0.836182	1.922	
0.613403	0.552979	-1.01105	1.74805	
0.39917	0.594177	-1.12793	1.61285	
0.242615	0.646057	-1.18164	1.60583	
0.176392	0.752258	-1.17981	1.73645	
0.158386	0.89386	-1.15173	1.80847	
0.12146	1.03851	-1.16302	1.76941	
0.00976563	1.10962	-1.23444	1.67084	
-0.193787	1.19232	-1.36292	1.6156	
-0.411987	1.23169	-1.47552	1.67328	
-0.531616	1.20392	-1.47186	1.75293	
-0.474854	1.06842	-1.31439	1.81335	
-0.299683	0.941772	-1.09894	1.86768	
-0.106812	0.904846	-0.918579	1.99738	
0.0424194	0.91217	-0.869446	2.12738	
0.134583	0.889587	-0.94635	2.22931	
0.1828	0.846863	-1.10931	2.18994	
0.202637	0.837708	-1.27808	2.17621	
0.223694	0.835571	-1.40259	2.1402	
0.271606	0.773621	-1.45355	2.12555	
0.325928	0.684814	-1.50879	2.05536	
0.374451	0.644226	-1.61896	1.94946	
0.396118	0.614014	-1.77521	1.91559	
0.383606	0.586853	-1.9162	2.052	
0.363464	0.536194	-1.96594	2.20764	
0.337219	0.562439	-1.96838	2.24365	
0.325012	0.672607	-1.95068	2.12128	
0.328674	0.794678	-1.93054	2.0047	
0.370483	0.833435	-1.86371	1.90247	
0.43335	0.767822	-1.75568	1.77521	
0.46875	0.655823	-1.62811	1.58051	
0.454407	0.568848	-1.58539	1.39496	
0.367126	0.631409	-1.68304	1.35864	
0.250244	0.769043	-1.87958	1.39893	
0.117493	0.89386	-2.06879	1.41998	
0.00427246	0.855103	-2.16095	1.3092	
-0.0744629	0.668335	-2.11182	1.10291	
-0.105896	0.554199	-2.00806	0.98938	
-0.0866699	0.565186	-1.92291	0.908813	
-0.0466919	0.694885	-1.88782	0.793762	
-0.0430298	0.784912	-1.91711	0.610657	
-0.141907	0.819702	-1.97266	0.450134	
-0.314026	0.888672	-2.03796	0.428467	
-0.474854	1.08154	-2.09686	0.610962	
-0.557251	1.40259	-2.10968	0.792847	
-0.582275	1.7041	-2.08069	0.806274	
-0.603638	1.84875	-2.00562	0.627136	
-0.603638	1.79504	-1.86737	0.564575	
-0.541077	1.61957	-1.68671	0.679016	
-0.381165	1.55426	-1.51062	0.884094	
-0.197449	1.59729	-1.44958	0.920105	
-0.0726318	1.68884	-1.50848	0.700684	
-0.0778198	1.68427	-1.63971	0.467224	
-0.187073	1.58051	-1.75781	0.410767	
-0.320129	1.40533	-1.82251	0.560303	
-0.413818	1.26862	-1.87103	0.830994	
-0.384216	1.25824	-1.922	1.07605	
-0.228882	1.42181	-1.95343	1.25214	
-0.00549316	1.57928	-1.93298	1.3147	
0.166016	1.63666	-1.8512	1.28571	
0.163574	1.58264	-1.75293	1.23688	
-0.0485229	1.5567	-1.72363	1.25732	
-0.389709	1.61499	-1.79626	1.34644	
-0.717163	1.6806	-1.92322	1.43005	
-0.897827	1.763	-1.99005	1.45203	
-0.916138	1.87164	-1.92841	1.44409	
-0.835876	1.97693	-1.77307	1.37543	
-0.752563	2.00256	-1.64917	1.34094	
-0.707703	1.89545	-1.67206	1.37573	
-0.715942	1.70502	-1.81946	1.46118	
-0.741882	1.56952	-1.98059	1.56433	
-0.742798	1.47949	-2.05292	1.56281	
-0.703735	1.4389	-2.04254	1.41479	
-0.632629	1.4267	-2.02148	1.29883	
-0.565491	1.41693	-2.04742	1.1853	
-0.465088	1.38702	-2.11029	1.15906	
-0.319214	1.34155	-2.13898	1.19812	
-0.19104	1.31927	-2.11456	1.28845	
-0.162964	1.3858	-2.08191	1.40686	
-0.270386	1.55273	-2.10052	1.46057	
-0.440369	1.73981	-2.16583	1.39435	
-0.580444	1.87958	-2.20398	1.25092	
-0.671082	2.00989	-2.14478	1.10901	
-0.709534	2.02484	-1.96167	1.00433	
-0.695801	1.93848	-1.72699	0.977478	
-0.634766	1.84021	-1.56647	1.00891	
-0.553284	1.78467	-1.55548	1.20453	
-0.531921	1.81305	-1.73248	1.58386	
-0.593872	1.77917	-2.00897	1.88934	
-0.695801	1.69647	-2.28516	1.98151	
-0.745239	1.62231	-2.47437	1.80725	
-0.678406	1.56799	-2.51038	1.61163	
-0.503845	1.44135	-2.388	1.5097	
-0.329285	1.19019	-2.17957	1.55426	
-0.235291	0.940857	-1.9458	1.59271	
-0.257874	0.797729	-1.78955	1.58478	
-0.351563	0.791016	-1.76147	1.5567	
-0.453491	0.880127	-1.84967	1.58966	
-0.543518	1.02203	-1.97479	1.6922	
-0.630188	1.16974	-2.03125	1.81	
-0.713196	1.30035	-1.93756	1.92047	
-0.754089	1.35162	-1.72211	1.89453	
-0.750427	1.3266	-1.46484	1.70105	
-0.684204	1.34155	-1.24878	1.42609	
-0.598145	1.44897	-1.18134	1.24847	
-0.52887	1.59332	-1.2915	1.28418	
-0.507202	1.65466	-1.53625	1.44531	
-0.49469	1.61743	-1.79962	1.64124	
-0.469666	1.55792	-1.95313	1.75903	
-0.44281	1.47156	-1.96899	1.8573	
-0.395508	1.34766	-1.87042	1.9574	
-0.279236	1.15723	-1.73096	2.0285	
-0.078125	1.01135	-1.60736	2.00317	
0.141296	0.978699	-1.48743	2.00928	
0.238647	1.01471	-1.40045	2.05261	
0.144958	1.08185	-1.36414	2.13226	
-0.11322	1.10413	-1.38275	2.15485	
-0.427856	1.11633	-1.35895	2.11853	
-0.664978	1.11664	-1.20697	2.02271	
-0.759277	1.15631	-0.962524	1.99554	
-0.757751	1.16241	-0.785828	2.09717	
-0.749817	1.24329	-0.810242	2.32513	
-0.74585	1.28845	-1.02783	2.63031	
-0.737305	1.35681	-1.32172	2.87384	
-0.699768	1.40106	-1.604	2.97974	
-0.681152	1.42975	-1.80756	2.9071	
-0.703125	1.44592	-1.9101	2.78015	
-0.725403	1.42944	-1.87927	2.71881	
-0.692749	1.33636	-1.72913	2.7356	
-0.592346	1.28052	-1.51733	2.8241	
-0.45105	1.25	-1.34003	2.90863	
-0.316772	1.30798	-1.26587	2.91992	
-0.248718	1.3916	-1.26343	2.91687	
-0.27771	1.48743	-1.23566	2.89948	
-0.396118	1.56372	-1.08429	2.88818	
-0.534668	1.59637	-0.836487	2.83539	
-0.668335	1.59332	-0.636597	2.79663	
-0.761414	1.50543	-0.620728	2.74353	
-0.815125	1.32446	-0.827332	2.76001	
-0.796814	1.08276	-1.14532	2.85309	
-0.708313	0.950623	-1.40472	3.00049	
-0.631409	0.966187	-1.54083	3.14728	
-0.632019	1.10199	-1.57959	3.20007	
-0.689697	1.24054	-1.59271	3.20129	
-0.717468	1.29791	-1.56464	3.28552	
-0.653992	1.22467	-1.46606	3.39722	
-0.538635	1.11359	-1.26312	3.5733	
-0.450745	1.07086	-1.01471	3.74298	
-0.438538	1.18896	-0.804138	3.87878	
-0.46875	1.36719	-0.729065	3.86627	
-0.503235	1.40594	-0.783386	3.703	
-0.515442	1.26801	-0.838623	3.49121	
-0.505676	1.03516	-0.745544	3.38501	
-0.500183	0.910034	-0.489807	3.39233	
-0.491638	0.926514	-0.238953	3.45337	
-0.485229	1.04065	-0.167847	3.4787	
-0.475159	1.18073	-0.296326	3.53302	
-0.443115	1.28784	-0.495911	3.56781	
-0.376892	1.36658	-0.666504	3.58704	
-0.323486	1.41815	-0.798645	3.54492	
-0.301819	1.47858	-0.925598	3.52448	
-0.315247	1.50452	-1.07422	3.53271	
-0.380554	1.42731	-1.23535	3.59802	
-0.433044	1.29639	-1.37482	3.68317	
-0.450134	1.24176	-1.44257	3.75702	
-0.41687	1.26373	-1.40991	3.72284	
-0.353699	1.32751	-1.32019	3.56659	
-0.306396	1.38245	-1.24146	3.42102	
-0.286255	1.47552	-1.21002	3.36975	
-0.284729	1.63147	-1.18805	3.49884	
-0.307617	1.73706	-1.11145	3.69019	
-0.377502	1.74072	-0.989685	3.83453	
-0.479736	1.67511	-0.900574	3.88336	
-0.58197	1.60645	-0.880432	3.93158	
-0.644226	1.45935	-0.916138	3.9798	
-0.656128	1.28479	-0.955505	4.01123	
-0.68573	1.13342	-0.995178	4.00574	
-0.75592	1.08856	-1.05652	3.97247	
-0.829163	1.18378	-1.13953	3.95935	
-0.835876	1.32202	-1.21002	3.99933	
-0.74585	1.4743	-1.21429	4.10645	
-0.610657	1.58203	-1.14441	4.15253	
-0.48645	1.57288	-1.03699	4.09607	
-0.386047	1.46057	-0.940552	3.91388	
-0.301208	1.28845	-0.888367	3.74298	
-0.270081	1.12427	-0.891724	3.62488	
-0.28656	1.08124	-0.909119	3.60168	
-0.34729	1.14349	-0.906982	3.59711	
-0.408936	1.26038	-0.884705	3.56171	
-0.435791	1.35468	-0.885925	3.49457	
-0.430908	1.42731	-0.932007	3.53394	
-0.426331	1.3382	-1.02264	3.69934	
-0.432129	1.20361	-1.13556	3.92761	
-0.456238	1.08795	-1.26404	3.9798	
-0.461731	1.1795	-1.40778	3.89435	
-0.461121	1.47003	-1.53198	3.81042	
-0.509033	1.7395	-1.57562	3.79333	
-0.627747	1.86462	-1.51062	3.8443	
-0.72876	1.83472	-1.37695	3.88275	
-0.694885	1.76147	-1.22223	3.91266	
-0.541382	1.77032	-1.09802	3.93402	
-0.41626	1.85577	-1.06689	3.88977	
-0.445862	2.03918	-1.14014	3.7619	
-0.597229	2.16064	-1.27106	3.62457	
-0.739136	2.15027	-1.36749	3.526	
-0.791626	1.9165	-1.3913	3.45612	
-0.788269	1.57684	-1.37207	3.41492	
-0.776672	1.30646	-1.35468	3.43384	
-0.791321	1.25183	-1.35925	3.4317	
-0.821228	1.36475	-1.38031	3.36273	
-0.85968	1.57013	-1.42181	3.35297	
-0.913696	1.70654	-1.50696	3.46924	
-1.01593	1.7099	-1.63849	3.72589	
-1.16333	1.67694	-1.78528	3.87909	
-1.25916	1.74896	-1.8988	3.92365	
-1.22559	1.92932	-1.93604	3.90137	
-1.09955	2.11334	-1.87164	3.93829	
-1.01074	2.17773	-1.69678	3.98834	
-1.08246	2.05505	-1.45966	3.89008	
-1.32721	1.86371	-1.2738	3.77808	
-1.61652	1.71265	-1.25397	3.73779	
-1.81763	1.69708	-1.41327	3.68164	
-1.85059	1.81	-1.66504	3.68073	
-1.74866	1.90002	-1.88416	3.6972	
-1.62506	1.89362	-2.00317	3.74115	
-1.54022	1.76819	-2.01111	3.72437	
-1.50848	1.61926	-1.91986	3.61755	
-1.53137	1.53931	-1.76636	3.58551	
-1.61346	1.58752	-1.62079	3.67584	
-1.71112	1.83594	-1.52954	3.69171	
-1.77612	2.07672	-1.49628	3.70117	
-1.79504	2.2049	-1.49994	3.64075	
-1.82861	2.14111	-1.53259	3.59955	
-1.91528	2.04376	-1.60034	3.53027	
-2.04407	2.04193	-1.70349	3.32184	
-2.15515	2.07489	-1.78986	3.11768	
-2.21741	1.99341	-1.82861	2.93213	
-2.18414	1.87317	-1.78436	2.77161	
-2.05078	1.77063	-1.67694	2.64465	
-1.87225	1.81427	-1.54327	2.5766	
-1.72516	1.87897	-1.42578	2.60834	
-1.64398	1.88629	-1.33636	2.68097	
-1.59332	1.83685	-1.31775	2.67883	
-1.586	1.81488	-1.36902	2.6236	
-1.66107	1.76941	-1.46881	2.56775	
-1.78894	1.71417	-1.57318	2.57751	
-1.90247	1.66107	-1.64856	2.67761	
-1.91772	1.67816	-1.70715	2.85461	
-1.84082	1.7923	-1.7807	3.01941	
-1.73096	1.92383	-1.8692	3.18909	
-1.61713	1.9928	-1.93909	3.30017	
-1.50604	2.00287	-1.96136	3.33191	
-1.37939	1.9986	-1.89301	3.27728	
-1.24878	2.05658	-1.78131	3.21289	
-1.18164	2.16553	-1.70715	3.14148	
-1.25397	2.30133	-1.74683	3.06946	
-1.40137	2.28363	-1.86005	2.97363	
-1.53656	2.15698	-1.94	2.99103	
-1.59424	1.94427	-1.91956	3.04749	
-1.5683	1.79352	-1.84357	3.02887	
-1.5097	1.80573	-1.80664	2.81494	
-1.41022	1.87958	-1.83929	2.51526	
-1.30829	1.95465	-1.89423	2.32391	
-1.26587	1.97845	-1.92474	2.36786	
-1.29974	1.97418	-1.91742	2.5943	
-1.34491	1.95862	-1.90582	2.77832	
-1.2854	1.92413	-1.88171	2.79358	
-1.10748	1.84937	-1.84021	2.67365	
-0.910339	1.76147	-1.7868	2.46857	
-0.795593	1.71173	-1.74042	2.37	
-0.743408	1.77002	-1.71448	2.45941	
-0.675354	1.94427	-1.73492	2.58972	
-0.580444	2.06451	-1.81	2.69135	
-0.507202	2.07031	-1.92261	2.65961	
-0.487061	1.90063	-2.04285	2.57629	
-0.49469	1.67572	-2.16064	2.4942	
-0.496521	1.49933	-2.25006	2.48901	
-0.492249	1.44775	-2.25403	2.51617	
-0.509338	1.49872	-2.13898	2.49634	
-0.553284	1.5625	-1.97723	2.46124	
-0.63446	1.539	-1.90338	2.43622	
-0.764465	1.41052	-1.98761	2.40967	
-0.880127	1.27747	-2.16461	2.53632	
-0.929871	1.2796	-2.31689	2.77252	
-0.901184	1.45874	-2.38403	3.05756	
-0.822144	1.62018	-2.39258	3.2251	
-0.778503	1.60767	-2.38983	3.18085	
-0.78949	1.4444	-2.39899	3.05267	
-0.856018	1.34338	-2.39349	2.94708	
-0.943298	1.42456	-2.35077	2.90802	
-0.986023	1.58539	-2.26166	2.95197	
-0.931091	1.69464	-2.17285	3.16345	
-0.789795	1.72394	-2.12769	3.36243	
-0.666199	1.71814	-2.14569	3.46802	
-0.622253	1.70929	-2.19086	3.45886	
